samplenr	I	II	III	aVR	aVL	aVF	V1	V2	V3	V4	V5	V6	measurement
0	180	220	40	-200	80	120	-20	380	260	160	120	160
1	160	200	40	-180	60	120	0	360	260	160	120	160
2	160	180	20	-180	60	100	-20	320	260	160	120	160
3	140	180	40	-160	40	100	0	300	240	140	100	140
4	140	180	40	-160	60	100	0	280	240	140	100	140
5	120	160	20	-140	60	100	0	260	240	140	100	140
6	100	160	60	-140	20	100	0	240	240	140	100	140
7	100	160	60	-120	20	100	0	220	240	120	80	140
8	100	140	60	-120	20	100	0	200	220	120	80	140
9	80	140	80	-120	20	100	0	180	220	100	80	120
10	80	140	80	-100	0	100	0	160	200	100	80	120
11	60	120	80	-80	-20	100	0	120	180	100	60	120
12	40	120	80	-80	-20	100	0	100	180	100	40	120
13	40	120	80	-80	-20	100	0	80	180	80	40	120
14	40	120	80	-80	-20	100	0	60	180	60	40	120
15	20	100	80	-60	-20	100	0	60	160	60	40	120
16	20	80	80	-60	-20	100	0	60	160	60	40	100
17	20	100	80	-60	-40	100	0	40	160	60	40	100
18	20	100	80	-60	-40	80	0	20	140	60	40	100
19	20	100	80	-60	-40	80	20	0	140	60	20	100
20	0	100	100	-40	-40	80	20	-20	120	40	0	100
21	0	80	80	-20	-40	80	20	-40	100	20	0	100
22	-20	60	100	-20	-60	80	20	-40	100	20	0	100
23	-40	60	100	-20	-80	80	20	-40	100	20	0	100
24	-40	60	100	-20	-80	80	20	-60	100	20	0	100
25	-40	60	100	-20	-60	80	20	-60	100	20	0	80
26	-40	60	100	-20	-60	80	20	-60	100	20	0	80
27	-40	60	100	-20	-60	80	20	-60	100	20	0	80
28	-40	60	100	0	-60	60	0	-80	100	20	0	80
29	-40	60	100	0	-60	60	0	-80	100	20	-20	80
30	-40	60	100	0	-80	80	0	-80	100	20	-20	80
31	-40	60	100	0	-60	80	0	-80	100	20	-20	80
32	-40	60	100	0	-60	80	0	-80	80	20	-20	80
33	-40	60	100	0	-60	80	0	-80	80	20	-20	80
34	-40	60	100	0	-60	80	0	-80	80	0	-20	80
35	-40	60	80	0	-60	80	0	-80	80	0	-20	80
36	-40	60	80	0	-60	80	0	-80	80	0	-20	80
37	-60	60	100	0	-80	80	0	-80	80	0	-20	80
38	-40	60	100	0	-80	80	0	-80	80	0	-20	60
39	-40	60	100	0	-80	80	0	-80	80	0	-20	60
40	-40	60	100	0	-80	80	0	-80	80	20	-20	60
41	-40	40	100	0	-80	80	0	-80	80	0	-20	60
42	-60	40	100	0	-80	80	0	-80	80	0	-20	60
43	-60	40	100	0	-80	80	0	-80	80	0	-20	60
44	-60	40	100	0	-80	80	0	-80	80	0	-20	60
45	-60	40	100	0	-80	60	0	-80	80	0	-20	60
46	-60	40	100	0	-80	60	20	-80	80	0	-20	60
47	-60	60	100	0	-80	60	20	-80	80	0	-20	60
48	-60	60	100	0	-80	60	20	-80	80	0	-20	60
49	-40	60	80	0	-60	60	20	-80	80	0	-20	60
50	-40	60	100	0	-80	80	20	-80	80	0	-20	60
51	-40	60	100	0	-60	80	20	-80	100	0	-20	60
52	-40	40	100	0	-60	60	20	-80	100	0	-20	60
53	-40	40	100	0	-80	80	20	-80	100	0	-20	60
54	-60	40	100	0	-100	80	20	-80	100	0	-20	60
55	-60	40	100	0	-80	80	20	-80	100	0	-20	60
56	-60	40	100	0	-80	80	20	-80	100	0	-20	60
57	-60	40	100	0	-80	80	20	-80	100	0	-20	60
58	-60	60	100	0	-80	80	20	-80	100	0	-20	60
59	-60	60	100	0	-80	80	20	-80	100	0	-20	60
60	-60	60	100	0	-80	80	20	-80	100	0	-20	60
61	-40	60	100	0	-60	80	20	-80	100	0	-20	60
62	-20	60	100	0	-60	80	20	-80	100	0	-20	60
63	-20	60	100	-20	-60	80	20	-80	100	0	-20	60
64	-40	60	120	-20	-80	100	20	-80	100	0	-20	60
65	-40	60	80	-20	-60	60	20	-80	100	0	-20	60
66	-40	60	80	-20	-60	60	20	-80	100	0	-20	60
67	-40	60	100	-20	-60	80	20	-80	100	0	-20	60
68	-60	60	100	-20	-80	80	20	-80	100	0	-20	60
69	-60	60	100	-20	-80	80	20	-80	100	0	-20	60
70	-60	60	100	0	-80	80	20	-80	100	0	-20	60
71	-60	40	100	0	-80	60	20	-80	80	0	-20	60
72	-40	40	100	0	-60	60	20	-80	80	0	-20	60
73	-40	40	100	0	-80	60	20	-80	80	0	-20	60
74	-40	40	100	0	-80	60	20	-80	80	0	-20	60
75	-40	40	100	0	-80	60	20	-80	80	0	-20	60
76	-40	40	100	0	-80	60	20	-80	100	0	-20	60
77	-40	40	100	0	-80	60	20	-80	100	0	-20	60
78	-40	40	100	0	-60	60	20	-80	100	0	-20	60
79	-40	40	100	0	-60	60	20	-80	100	0	-20	60
80	-40	40	100	0	-80	60	20	-80	100	0	-20	60
81	-20	60	80	-20	-60	60	20	-80	100	20	-20	60
82	0	80	80	-40	-60	60	20	-80	100	20	-20	60
83	-40	60	80	-20	-60	60	20	-80	100	20	-20	60
84	-60	40	80	0	-60	60	20	-80	100	20	-20	60
85	-40	40	80	0	-60	60	20	-80	100	20	-20	60
86	-40	40	80	0	-60	60	20	-80	100	20	-20	60
87	-60	40	100	0	-60	60	20	-80	100	20	-20	60
88	-80	20	100	20	-60	60	20	-80	100	0	-20	60
89	-80	20	100	20	-80	60	20	-80	100	0	-20	60
90	-60	40	100	20	-80	60	20	-100	100	0	-20	60
91	-40	40	80	20	-80	60	20	-100	80	0	-20	60
92	-60	20	80	20	-80	60	20	-100	80	0	-20	60
93	-60	20	80	20	-80	60	20	-100	80	0	-20	60
94	-60	40	80	20	-80	60	20	-100	80	0	-20	60
95	-60	40	80	20	-80	60	20	-100	80	0	-20	60
96	-60	40	100	20	-80	60	20	-100	80	0	-20	60
97	-60	40	100	20	-80	60	20	-100	80	0	-20	60
98	-60	40	80	20	-80	60	20	-120	80	0	-20	60
99	-40	60	80	0	-60	60	20	-100	80	0	-20	60
100	-20	80	80	-20	-60	80	20	-80	80	0	-20	60
101	-20	60	80	-20	-60	80	20	-80	80	0	-20	60
102	-40	40	80	-20	-60	80	0	-100	80	0	-20	60
103	-60	40	100	0	-80	80	0	-120	80	0	-20	60
104	-60	40	120	0	-80	80	0	-120	80	0	-20	80
105	-40	60	100	-20	-80	80	0	-100	80	0	0	80
106	-40	80	100	-20	-80	80	0	-100	80	0	0	80
107	-40	60	100	0	-80	80	0	-120	80	0	0	80
108	-40	40	100	20	-80	80	0	-120	80	0	0	80
109	-60	40	100	20	-80	80	0	-120	80	0	-20	60
110	-80	40	100	20	-80	80	0	-120	80	0	-40	60
111	-60	40	100	20	-80	80	0	-120	80	0	-20	60
112	-60	40	100	20	-80	80	0	-120	80	0	0	60
113	-60	40	100	20	-100	80	0	-120	80	0	-20	60
114	-60	40	100	20	-100	80	0	-120	80	-20	-40	60
115	-60	40	100	20	-80	80	0	-120	80	-20	-20	60
116	-60	60	120	0	-80	80	20	-100	80	-20	-20	60
117	-60	60	120	-20	-80	80	20	-100	80	0	-20	80
118	-40	60	100	-20	-80	80	20	-100	80	0	-20	80
119	-40	60	100	-20	-80	80	20	-120	80	0	-20	80
120	-40	80	120	-20	-80	100	20	-100	100	0	0	80
121	-40	100	140	-40	-80	120	20	-80	120	20	20	80
122	-40	120	140	-40	-80	120	20	-80	120	40	20	80
123	-20	120	140	-40	-80	120	40	-80	120	40	20	80
124	-20	120	120	-40	-80	120	40	-80	120	40	20	80
125	-20	100	100	-40	-80	100	40	-80	120	20	20	80
126	-20	100	120	-40	-80	100	40	-80	120	20	20	80
127	-20	100	120	-40	-80	100	40	-80	120	20	20	80
128	-20	80	120	-40	-80	100	40	-60	120	20	20	80
129	-20	80	100	-40	-60	100	40	-60	120	20	20	80
130	-20	100	120	-40	-80	100	40	-60	120	20	20	80
131	-20	100	120	-40	-80	100	40	-60	120	20	20	80
132	-20	80	100	-40	-60	80	40	-60	120	20	0	80
133	-20	80	80	-40	-40	80	40	-40	120	20	0	80
134	-20	80	100	-40	-60	80	40	-40	120	20	20	80
135	0	100	100	-40	-60	80	40	-40	120	20	20	80
136	20	100	100	-40	-60	80	20	-40	120	20	20	80
137	0	100	100	-40	-60	80	0	-40	120	20	20	80
138	0	100	100	-60	-60	80	0	-20	140	40	20	100
139	20	120	100	-80	-40	100	0	-20	160	60	20	100
140	20	120	100	-80	-40	120	0	-40	140	40	20	100
141	20	120	100	-80	-40	100	0	-40	120	20	20	100
142	20	120	100	-80	-40	100	0	-40	140	20	20	100
143	20	120	100	-60	-40	120	0	-40	140	20	20	100
144	20	100	80	-60	-40	100	-20	-60	120	20	20	100
145	0	80	80	-40	-40	80	-20	-80	100	0	0	80
146	-20	80	80	-40	-40	80	-20	-80	100	0	0	80
147	20	100	100	-60	-40	100	-20	-60	100	20	20	80
148	20	100	80	-60	-40	80	-20	-80	100	20	20	80
149	20	80	60	-60	-40	80	-20	-100	80	0	0	80
150	0	60	80	-40	-40	80	-20	-120	60	-20	-20	80
151	-20	60	80	-20	-40	80	-20	-100	60	-20	-20	80
152	0	60	60	-20	-40	60	-20	-100	60	-20	-20	60
153	0	60	60	-20	-40	60	-20	-100	60	-20	-20	60
154	0	80	60	-40	-40	60	-40	-100	60	-20	-20	60
155	0	80	60	-40	-40	60	-40	-120	60	-20	-20	60
156	-20	60	60	-20	-40	60	-40	-140	40	-40	-20	60
157	-40	60	80	0	-40	60	-40	-140	40	-40	-20	60
158	-20	60	80	-20	-40	60	-40	-140	40	-40	-20	60
159	-20	60	80	-20	-40	60	-40	-140	40	-40	-20	60
160	-40	60	100	0	-80	80	-40	-160	40	-40	-20	60
161	-40	60	80	0	-60	80	-40	-160	40	-40	-20	60
162	-40	40	80	0	-60	80	-40	-160	40	-40	-20	60
163	-40	40	80	0	-80	80	-40	-160	40	-40	-20	60
164	-60	40	100	0	-100	80	-40	-160	40	-40	-40	60
165	-60	40	100	0	-80	60	-40	-160	40	-40	-40	60
166	-60	40	100	0	-80	80	-40	-160	40	-40	-40	60
167	-80	40	100	20	-80	80	-20	-160	40	-40	-40	60
168	-80	40	100	20	-80	80	-20	-160	40	-40	-40	60
169	-80	40	100	20	-80	80	-20	-160	40	-40	-40	60
170	-80	40	120	20	-100	80	-20	-180	40	-40	-40	40
171	-80	40	120	20	-100	80	-40	-180	40	-40	-40	40
172	-80	40	120	40	-100	60	-40	-180	20	-40	-40	40
173	-80	40	120	40	-100	60	-40	-180	20	-40	-40	40
174	-80	40	120	40	-100	60	-40	-180	20	-40	-40	40
175	-80	40	120	40	-100	60	-40	-180	20	-40	-40	40
176	-80	40	120	40	-100	60	-40	-180	20	-40	-40	40
177	-80	40	120	40	-100	60	-40	-180	20	-40	-40	40
178	-60	20	80	20	-80	60	-40	-200	20	-40	-60	40
179	-60	20	100	20	-80	60	-40	-180	40	-40	-60	40
180	-80	20	120	20	-80	60	-20	-160	40	-40	-60	40
181	-80	20	100	20	-80	60	-20	-160	40	-40	-60	40
182	-80	20	80	20	-80	60	-40	-160	20	-40	-60	40
183	-80	20	100	20	-80	60	-40	-160	20	-40	-60	40
184	-80	20	100	20	-80	60	-40	-160	20	-40	-60	40
185	-80	20	100	20	-80	60	-40	-160	20	-40	-60	40
186	-80	20	100	20	-100	60	-40	-180	20	-40	-60	40
187	-80	20	100	40	-100	60	-20	-180	20	-40	-60	40
188	-80	20	100	40	-100	60	-20	-180	20	-40	-60	40
189	-80	20	100	40	-100	60	-20	-160	20	-40	-60	40
190	-80	20	100	40	-100	60	-20	-160	20	-40	-60	40
191	-80	20	100	40	-100	60	-20	-180	20	-40	-60	40
192	-100	0	100	60	-100	60	-20	-160	20	-40	-60	40
193	-120	-20	100	60	-100	60	20	-160	20	-40	-60	40
194	-120	-20	100	60	-120	60	40	-160	20	-40	-60	40
195	-120	-20	100	60	-120	40	60	-160	40	-40	-60	40
196	-120	-20	100	60	-120	40	60	-140	60	-40	-60	20
197	-140	-20	120	80	-120	40	80	-120	60	-40	-80	0
198	-140	-40	100	100	-120	40	100	-100	60	-40	-100	-20
199	-140	-60	80	120	-120	20	80	-80	60	-40	-100	-20
200	-140	-60	100	100	-120	20	100	-20	100	-20	-80	-20
201	-140	-40	120	80	-120	40	120	80	160	20	-40	0
202	-100	0	120	60	-120	60	140	240	260	100	20	40
203	-40	60	100	-20	-80	80	160	400	360	180	80	80
204	60	120	40	-100	20	80	120	540	400	240	140	120
205	200	160	-60	-180	120	40	40	620	400	260	180	160
206	320	200	-140	-260	220	20	-40	680	380	260	180	180
207	460	240	-240	-340	340	0	-160	740	360	260	180	180
208	640	280	-360	-460	500	-40	-280	860	340	240	200	180
209	800	340	-460	-560	620	-60	-380	1000	360	260	220	200
210	940	400	-540	-660	740	-60	-480	1140	380	260	240	220
211	1080	440	-640	-760	860	-100	-540	1200	360	220	220	220
212	1140	420	-720	-780	920	-140	-560	1180	280	140	160	180
213	1140	400	-740	-780	940	-180	-560	1120	200	60	100	140
214	1140	380	-760	-760	960	-200	-540	1060	160	-20	40	100
215	1120	360	-760	-740	940	-220	-560	840	100	-60	-20	80
216	1020	340	-680	-680	860	-180	-640	500	-20	-100	-60	60
217	900	340	-560	-620	740	-120	-660	180	-100	-120	-60	80
218	720	340	-380	-520	540	-20	-680	-200	-160	-120	-40	120
219	540	340	-200	-420	360	80	-700	-540	-220	-120	-40	140
220	380	340	-20	-360	180	180	-720	-800	-240	-120	-20	180
221	260	340	100	-300	80	220	-740	-1020	-260	-120	0	200
222	160	320	160	-240	0	240	-740	-1140	-280	-120	20	200
223	80	300	220	-200	-80	260	-700	-1260	-300	-120	40	200
224	0	300	280	-160	-140	280	-640	-1320	-320	-120	40	200
225	-40	300	320	-120	-180	280	-580	-1260	-320	-100	40	200
226	-80	260	340	-80	-220	280	-500	-1180	-320	-100	20	200
227	-120	220	340	-60	-240	280	-440	-1100	-320	-120	-20	180
228	-140	200	340	-40	-240	280	-380	-1020	-320	-140	-40	160
229	-140	160	300	-20	-220	240	-320	-880	-300	-140	-60	140
230	-140	120	280	0	-200	220	-260	-780	-260	-140	-60	120
231	-140	80	240	20	-180	180	-220	-680	-220	-140	-60	100
232	-140	60	200	40	-160	140	-180	-560	-180	-140	-60	80
233	-140	40	180	40	-160	100	-140	-480	-160	-120	-80	60
234	-120	20	140	40	-140	80	-120	-420	-120	-120	-80	40
235	-100	40	120	40	-120	60	-80	-340	-80	-100	-60	40
236	-80	60	120	20	-120	80	-60	-280	-40	-80	-40	40
237	-80	60	120	20	-120	80	-40	-240	-20	-40	-40	40
238	-80	40	100	20	-100	80	-40	-220	-20	-40	-40	40
239	-60	40	100	20	-80	80	-40	-200	-20	-40	-40	40
240	-60	40	100	20	-80	80	-40	-180	-20	-40	-40	60
241	-60	40	100	20	-80	80	-40	-180	-20	-40	-40	60
242	-60	40	100	20	-80	80	-20	-160	0	-40	-40	60
243	-60	40	100	20	-80	80	-20	-140	20	-40	-40	60
244	-60	40	100	20	-80	60	-20	-140	20	-40	-40	60
245	-60	40	100	20	-80	40	-20	-140	20	-40	-40	60
246	-60	40	100	20	-80	40	-20	-140	20	-60	-40	40
247	-60	40	100	20	-80	40	-20	-140	20	-60	-40	40
248	-60	20	100	20	-80	40	-20	-120	20	-60	-40	40
249	-60	20	100	20	-80	60	-20	-100	40	-40	-40	40
250	-60	20	100	20	-80	60	-20	-100	40	-40	-40	40
251	-60	20	80	20	-80	60	-20	-100	40	-40	-40	40
252	-60	20	60	20	-80	40	-20	-100	40	-40	-40	40
253	-60	20	80	20	-80	40	-20	-100	40	-40	-40	40
254	-60	20	100	20	-80	60	0	-80	40	-40	-40	40
255	-60	20	80	20	-60	60	0	-80	40	-40	-40	40
256	-60	20	80	20	-60	60	0	-80	40	-40	-40	40
257	-60	20	80	20	-60	60	0	-80	40	-40	-40	40
258	-60	20	80	20	-60	60	0	-80	40	-40	-40	40
259	-40	40	80	0	-60	60	0	-60	40	-40	-40	40
260	-20	40	80	0	-60	60	0	-60	40	-40	-40	60
261	-40	20	80	20	-60	60	0	-60	40	-40	-40	60
262	-40	20	80	0	-60	60	-20	-60	40	-40	-40	60
263	-40	40	80	0	-60	60	-20	-40	40	-40	-40	60
264	-40	40	80	0	-60	60	0	-40	40	-40	-40	60
265	-40	40	80	20	-60	60	0	-40	40	-40	-40	60
266	-40	40	80	20	-60	60	0	-40	40	-20	-40	60
267	-40	40	80	20	-60	60	0	-40	60	0	-40	60
268	-40	40	60	0	-60	40	0	-40	60	-20	-40	60
269	-20	40	60	-20	-40	40	0	-20	60	-20	-20	60
270	-20	40	60	-20	-40	40	20	-20	60	-20	-20	60
271	-20	40	60	0	-40	40	0	-20	60	-20	-20	60
272	-20	40	60	0	-40	40	0	-20	60	-20	-20	60
273	-20	40	60	0	-40	60	0	0	60	-20	-20	60
274	-20	40	60	-20	-40	80	0	0	60	-20	-20	60
275	-20	40	60	-20	-40	80	0	0	60	-20	-20	60
276	-20	40	60	-20	-40	60	0	0	60	-20	-20	60
277	-20	40	60	-20	-40	60	0	0	60	-20	-20	60
278	-20	40	60	-20	-40	60	0	0	60	-20	-20	60
279	0	40	60	-20	-40	60	0	40	80	-20	-20	60
280	-20	40	80	-20	-40	60	0	40	80	-20	-20	60
281	-20	40	60	-20	-40	40	0	40	60	-20	-20	60
282	-20	40	40	-20	-40	40	0	40	60	-20	-20	60
283	0	40	20	-20	-20	40	0	60	60	-20	-20	60
284	20	40	0	-20	0	20	0	80	60	-20	-40	60
285	20	40	0	-20	0	0	0	80	60	-20	-40	60
286	0	20	0	-20	0	0	0	80	60	-20	-40	60
287	0	20	20	-20	0	20	0	80	60	-20	-40	60
288	20	20	20	-20	0	20	0	80	60	-20	-40	60
289	20	20	20	-20	0	20	-20	80	60	-20	-40	60
290	20	40	20	-20	0	20	-20	100	60	-20	-40	60
291	20	40	20	-40	20	20	-20	120	60	-20	-40	60
292	40	40	20	-40	20	20	-20	140	60	-20	-40	60
293	40	40	0	-40	20	20	-20	140	60	-20	-40	60
294	40	40	0	-40	20	20	-20	140	60	-20	-40	60
295	40	40	-20	-40	20	20	-20	160	60	-20	-40	60
296	60	60	-20	-60	40	20	-20	180	60	0	-20	60
297	60	60	-20	-60	40	20	-20	180	60	0	-20	60
298	60	40	-20	-60	40	20	-20	180	60	0	-20	60
299	60	40	-20	-60	40	20	-20	180	60	0	-20	60
300	80	40	-20	-60	60	20	-20	200	80	0	-20	60
301	80	40	-20	-60	60	20	-20	220	80	0	-20	60
302	80	40	-20	-60	60	20	-20	260	80	20	-20	60
303	80	60	-20	-60	60	20	-20	260	80	20	-20	60
304	80	60	-40	-80	60	20	-20	260	80	20	-20	60
305	100	60	-60	-100	80	0	-20	280	80	20	0	60
306	120	60	-60	-100	100	0	-40	300	100	20	20	60
307	140	60	-60	-100	100	0	-40	300	100	20	20	60
308	160	80	-60	-120	100	0	-20	300	100	20	20	60
309	160	80	-60	-120	100	0	-40	320	100	20	20	60
310	160	80	-80	-120	120	0	-40	340	100	20	20	60
311	180	80	-100	-120	140	0	-40	360	100	40	20	80
312	200	80	-100	-140	140	0	-40	360	120	60	20	80
313	180	100	-80	-140	140	20	-40	380	140	80	40	80
314	180	120	-80	-140	140	20	-40	400	140	80	60	80
315	180	120	-80	-160	140	0	-40	400	140	80	40	80
316	200	120	-100	-160	140	0	-40	420	140	80	40	80
317	220	120	-100	-160	140	0	-40	420	160	80	40	100
318	240	120	-100	-160	160	0	-40	420	160	80	40	100
319	220	120	-100	-160	160	0	-40	420	160	80	40	100
320	220	140	-80	-180	160	20	-40	440	160	80	40	100
321	220	120	-80	-180	160	20	-40	460	160	80	40	100
322	220	100	-100	-180	160	0	-40	460	160	80	40	100
323	220	120	-100	-180	160	20	-40	460	160	80	40	100
324	240	140	-120	-200	180	0	-40	460	160	80	40	100
325	240	140	-120	-200	180	0	-40	460	160	80	40	100
326	240	140	-120	-180	180	0	-40	460	180	80	40	100
327	240	140	-100	-180	160	20	-20	460	180	80	60	120
328	260	140	-100	-180	180	20	-20	460	180	80	80	120
329	240	140	-100	-180	160	20	-20	440	180	80	60	120
330	220	140	-80	-180	140	40	-20	420	180	80	60	120
331	240	140	-100	-180	160	40	-40	420	180	100	60	120
332	240	140	-100	-180	160	40	-20	420	200	120	60	120
333	220	140	-80	-180	160	40	-20	420	200	120	80	120
334	220	140	-80	-180	140	40	-20	400	200	120	80	140
335	220	160	-80	-180	140	40	-20	380	200	120	80	140
336	220	180	-60	-200	140	60	-20	400	220	120	80	140
337	220	180	-40	-200	140	60	-20	380	220	120	80	140
338	220	160	-40	-200	140	60	-20	360	200	100	80	140
339	200	140	-40	-180	120	60	-20	320	200	100	80	140
340	180	140	-40	-160	100	60	-20	300	200	100	80	140
341	160	140	-40	-140	80	60	-20	280	200	80	80	140
342	140	140	-40	-120	80	60	0	260	200	80	80	140
343	120	140	-20	-120	80	60	20	260	200	80	60	120
344	120	140	0	-120	60	60	20	240	180	80	60	120
345	120	120	0	-120	60	60	20	220	160	60	60	120
346	120	100	0	-120	60	60	20	200	160	60	60	120
347	100	100	0	-100	40	60	20	180	160	60	40	120
348	80	100	0	-80	40	60	20	140	160	40	40	100
349	80	80	0	-80	40	40	20	120	140	20	40	100
350	60	60	20	-80	40	40	20	100	120	20	40	100
351	40	60	40	-60	20	40	20	80	120	20	20	100
352	20	60	40	-40	0	40	20	60	120	20	20	100
353	20	60	40	-40	0	40	20	60	120	20	20	80
354	20	60	40	-40	0	40	20	60	100	20	20	80
355	20	60	20	-40	0	40	20	20	80	0	20	80
356	20	60	40	-40	-20	60	20	0	80	0	20	80
357	0	60	60	-20	-40	60	20	-20	80	0	0	80
358	-20	40	60	0	-40	60	20	-40	80	0	-20	80
359	-20	40	60	-20	-40	60	20	-40	80	20	0	80
360	-20	40	60	-20	-40	60	20	-40	80	20	20	80
361	-40	40	80	0	-40	60	20	-40	80	20	20	80
362	-40	40	80	0	-40	40	20	-40	80	20	20	80
363	-40	40	80	0	-40	40	20	-40	80	20	20	80
364	-40	40	80	0	-40	40	20	-40	60	0	0	80
365	-40	40	80	0	-40	40	20	-40	60	-20	-20	60
366	-40	40	80	0	-40	40	20	-40	60	-20	-20	60
367	-40	40	80	0	-40	40	20	-40	60	-20	-20	60
368	-40	0	40	20	-40	20	20	-40	60	-40	-40	60
369	-40	-20	20	20	-40	20	20	-60	40	-60	-60	60
370	-40	0	40	20	-40	20	20	-60	40	-40	-60	60
371	-40	0	40	20	-40	20	20	-60	40	-40	-60	40
372	-40	-20	20	20	-40	0	20	-60	40	-40	-60	20
373	-40	-20	40	20	-60	20	20	-60	40	-40	-60	40
374	-40	-20	60	20	-60	20	20	-60	40	-40	-60	40
375	-40	-20	40	20	-40	20	20	-60	40	-40	-60	40
376	-40	-20	40	20	-40	20	40	-60	60	-40	-60	40
377	-40	-20	40	20	-40	20	40	-60	60	-40	-60	40
378	-60	-20	40	20	-40	20	20	-60	60	-40	-60	40
379	-60	0	60	20	-40	20	20	-60	60	-40	-60	40
380	-60	0	60	20	-60	20	20	-60	60	-40	-60	40
381	-40	-20	40	20	-40	20	20	-60	60	-40	-60	40
382	-40	-20	20	20	-40	0	20	-40	60	-40	-40	40
383	-40	-20	20	40	-40	0	20	-60	40	-40	-40	40
384	-60	20	80	40	-60	40	20	-60	40	-40	-60	40
385	-60	-20	60	40	-60	20	20	-60	60	-40	-60	40
386	-40	0	40	20	-40	20	20	-40	60	-40	-60	40
387	-40	0	40	20	-40	20	20	-60	60	-40	-60	40
388	-60	-20	40	20	-40	20	20	-40	60	-40	-60	40
389	-60	0	60	20	-60	20	20	-60	60	-40	-60	40
390	-40	20	40	20	-40	20	40	-40	60	-40	-40	40
391	-40	0	40	20	-40	20	40	-40	60	-40	-40	40
392	-40	0	40	20	-40	20	40	-40	60	-20	-40	40
393	-40	20	60	20	-40	40	40	-40	80	0	-40	40
394	-40	0	60	40	-40	20	40	-40	60	-20	-40	40
395	-40	-20	40	40	-40	20	40	-40	40	-20	-40	40
396	-40	-20	20	20	-40	20	40	-40	60	-20	-40	40
397	-60	0	40	20	-60	20	40	-40	80	0	-40	40
398	-60	0	60	20	-60	20	40	-40	80	20	-20	40
399	-60	0	60	20	-60	20	40	-60	80	0	-20	60
400	-60	0	60	20	-60	20	40	-60	80	0	-20	40
401	-60	0	60	20	-60	20	40	-60	80	0	-20	40
402	-40	0	40	20	-40	20	40	-60	60	0	-20	40
403	-60	0	60	20	-60	40	40	-40	60	0	-20	40
404	-60	0	80	20	-60	40	40	-40	60	0	-20	40
405	-40	0	60	20	-60	40	40	-40	80	-20	-20	40
406	-40	0	40	20	-60	40	40	-40	80	-40	-40	40
407	-40	0	40	20	-60	40	40	-40	80	-40	-60	40
408	-40	-20	40	40	-60	20	60	-20	80	-40	-60	40
409	-40	-20	40	40	-60	0	60	-20	80	-20	-60	40
410	-40	-20	40	40	-60	0	60	-40	80	-20	-60	40
411	-40	-20	40	40	-40	0	60	-40	80	-20	-60	40
412	-60	-20	40	40	-40	0	60	-40	80	-20	-60	40
413	-60	-20	40	40	-40	20	60	-40	80	-20	-60	40
414	-60	0	60	20	-40	40	60	-20	80	-20	-40	40
415	-60	0	40	20	-40	20	40	-20	80	-20	-40	40
416	-60	0	40	20	-40	20	40	-40	80	-20	-40	40
417	-40	0	40	20	-40	40	40	-20	80	-20	-40	40
418	-20	0	40	20	-40	20	40	-40	80	-20	-40	40
419	-40	0	40	20	-40	20	40	-40	80	-20	-40	40
420	-40	0	40	20	-40	20	40	-40	80	-20	-40	40
421	-40	-20	40	20	-40	20	40	-40	80	-20	-40	40
422	-40	-20	20	20	-40	20	40	-40	80	-20	-40	40
423	-40	-20	40	20	-40	20	40	-40	80	-20	-40	40
424	-60	-20	60	40	-60	20	40	-40	80	-20	-40	40
425	-40	-20	40	40	-40	0	40	-40	80	-20	-40	40
426	-40	-20	20	40	-40	0	40	-40	60	-40	-40	40
427	-60	0	40	40	-40	20	40	-40	60	-40	-40	40
428	-60	0	40	40	-40	20	40	-40	60	-20	-40	40
429	-60	-20	40	40	-40	20	40	-60	60	-20	-40	40
430	-60	-20	40	40	-40	20	20	-60	60	-20	-40	40
431	-40	-20	40	40	-40	20	20	-60	60	-20	-40	40
432	-20	-20	40	20	-40	20	40	-60	60	-20	-40	40
433	-40	-20	40	20	-40	20	40	-60	60	-20	-40	40
434	-60	-20	40	20	-40	20	40	-60	60	-20	-40	40
435	-40	-20	20	20	-40	0	40	-60	60	-20	-40	40
436	-40	-20	20	20	-40	0	40	-60	60	-20	-40	40
437	-40	-20	20	20	-40	0	40	-60	60	-40	-40	40
438	-40	-20	40	40	-40	0	40	-60	60	-20	-40	40
439	-40	-20	40	40	-40	0	40	-40	60	-20	-40	40
440	-40	-20	40	40	-40	0	40	-40	60	-20	-40	40
441	-40	-20	40	40	-40	0	40	-40	60	-20	-40	40
442	-40	-20	40	40	-40	0	40	-40	60	-20	-40	40
443	-40	-20	40	40	-40	20	40	-60	60	-20	-40	40
444	-60	-20	40	40	-40	20	20	-80	60	-40	-40	40
445	-40	-20	20	40	-40	0	0	-80	60	-40	-40	40
446	-40	-20	40	40	-40	0	20	-80	60	-40	-40	40
447	-40	-20	40	20	-40	20	40	-40	60	-20	-40	40
448	-40	-20	40	20	-40	20	20	-40	60	-20	-40	40
449	-60	-20	40	40	-40	20	20	-40	60	-40	-60	40
450	-60	-20	40	40	-40	20	40	-40	60	-40	-60	40
451	-40	-20	40	40	-40	20	60	-40	60	-40	-60	40
452	-20	0	40	20	-40	20	40	-40	80	-20	-60	40
453	-40	20	40	20	-40	20	40	-40	80	-20	-40	40
454	-60	40	60	20	-60	40	40	-40	80	-20	-40	40
455	-40	20	60	20	-60	40	40	-40	80	-20	-40	40
456	-40	20	60	20	-60	40	40	-40	80	-20	-40	40
457	-40	20	60	20	-60	40	40	-40	80	-20	-40	40
458	-40	20	60	0	-40	40	40	-40	80	-20	-40	40
459	-40	20	60	0	-40	40	40	-40	80	-20	-20	60
460	-40	20	60	0	-40	40	40	-20	80	-20	-20	60
461	-20	20	40	0	-20	20	40	0	80	-20	-20	60
462	-20	20	40	0	-20	20	40	0	80	-20	-40	40
463	-20	20	40	0	-20	20	40	0	80	-40	-60	40
464	-20	20	40	0	-40	20	40	0	100	-20	-40	40
465	0	20	40	0	-20	20	40	0	100	0	-40	40
466	-20	20	40	0	-20	20	40	0	100	0	-40	40
467	-20	20	40	0	-20	20	40	0	100	-20	-40	40
468	-20	20	40	0	-20	20	40	20	100	-20	-40	40
469	0	20	40	-20	-20	20	40	20	100	0	-40	40
470	0	20	40	-20	-20	40	40	20	100	0	-40	40
471	0	40	40	-20	-20	40	40	20	100	0	-40	40
472	20	60	40	-40	-20	40	40	20	100	20	-20	60
473	20	80	40	-60	-20	60	40	20	120	20	-20	80
474	20	80	40	-40	-20	60	20	0	120	20	-20	80
475	40	80	40	-40	0	40	0	0	120	20	0	80
476	20	80	60	-40	-20	60	20	0	120	20	20	80
477	20	80	60	-40	-20	60	20	0	120	20	20	80
478	40	80	40	-60	0	40	20	0	120	20	20	80
479	40	60	20	-40	20	40	20	-20	100	20	20	80
480	20	60	40	-40	0	40	20	-20	100	20	20	80
481	20	60	40	-40	-20	40	20	-20	100	40	20	80
482	20	60	40	-40	-20	40	0	-20	100	40	20	80
483	20	40	40	-20	-20	40	-20	-40	80	20	0	60
484	20	20	40	-20	-20	20	-20	-60	60	0	-20	60
485	20	20	40	-20	-20	20	-20	-60	60	-20	-20	60
486	20	20	40	-20	-20	20	-20	-60	60	-40	-20	60
487	20	20	40	-20	-20	20	-20	-80	60	-40	-40	60
488	20	20	20	-20	0	20	-20	-80	60	-40	-40	60
489	20	20	0	-20	20	20	-20	-80	40	-40	-40	40
490	0	20	20	-20	-20	20	-40	-80	40	-40	-40	40
491	0	20	20	-20	-20	20	-40	-80	40	-40	-40	40
492	0	0	0	0	0	0	-40	-100	40	-60	-40	40
493	-20	0	20	0	-20	20	-40	-100	40	-60	-40	40
494	-20	20	40	0	-40	20	-40	-100	40	-60	-40	40
495	-20	0	20	20	-20	0	-20	-100	40	-60	-60	40
496	-40	-20	20	40	-20	0	-20	-100	40	-60	-60	40
497	-40	0	20	20	-20	20	-20	-100	40	-40	-60	40
498	-40	0	40	20	-40	20	-20	-100	40	-40	-60	40
499	-40	0	40	20	-60	20	-20	-100	40	-40	-60	40
500	-60	-20	40	20	-60	20	0	-100	40	-40	-60	40
501	-60	-20	40	20	-60	20	0	-100	40	-40	-60	40
502	-60	-20	40	20	-40	20	0	-100	40	-40	-60	40
503	-60	-20	40	40	-40	20	0	-100	40	-40	-60	40
504	-60	-20	40	60	-40	20	0	-120	40	-40	-60	40
505	-60	-20	40	60	-40	20	20	-120	40	-40	-60	40
506	-60	-20	40	60	-60	20	20	-120	40	-40	-60	40
507	-60	-20	40	60	-60	20	0	-120	40	-40	-60	40
508	-60	-40	40	60	-60	0	0	-120	40	-60	-60	40
509	-80	-60	40	60	-60	-20	0	-140	40	-60	-60	20
510	-100	-40	60	60	-60	0	20	-140	40	-40	-60	20
511	-60	-20	40	40	-60	20	20	-120	40	-40	-60	40
512	-60	-20	40	40	-60	0	20	-100	40	-40	-60	40
513	-60	-20	40	40	-60	20	20	-120	40	-40	-60	40
514	-60	-20	40	40	-60	20	20	-120	40	-40	-60	40
515	-60	-20	40	40	-40	20	20	-120	40	-40	-60	40
516	-60	-20	60	40	-60	20	20	-120	40	-40	-40	40
517	-60	-20	60	40	-60	20	20	-120	40	-40	-40	40
518	-60	-20	40	40	-60	20	20	-120	40	-40	-40	40
519	-60	-20	40	40	-60	20	20	-120	40	-40	-40	40
520	-60	-20	60	40	-60	20	20	-120	40	-40	-40	40
521	-60	-20	60	40	-60	20	0	-120	40	-40	-40	40
522	-60	-20	60	40	-60	20	-20	-120	40	-40	-40	40
523	-60	0	80	40	-80	40	20	-120	40	-20	-40	40
524	-60	20	60	40	-80	40	20	-100	40	0	-40	40
525	-80	0	60	40	-80	40	20	-100	60	-20	-40	40
526	-80	-20	60	40	-80	40	20	-100	60	-20	-40	40
527	-80	-40	60	60	-80	20	40	-100	60	-20	-40	20
528	-80	-60	40	80	-80	0	60	-100	60	-40	-60	0
529	-120	-60	60	100	-100	0	80	-80	60	-40	-80	0
530	-120	-60	60	100	-100	0	100	-60	60	-40	-80	0
531	-120	-80	40	100	-80	-20	120	-40	80	-60	-80	0
532	-120	-100	20	120	-80	-40	140	-20	100	-80	-80	0
533	-120	-100	20	120	-80	-40	140	0	100	-60	-100	-20
534	-120	-100	20	120	-80	-40	140	20	100	-60	-120	-40
535	-120	-120	20	120	-80	-60	160	80	120	-40	-100	-40
536	-120	-120	20	100	-80	-60	180	160	180	20	-60	-40
537	-80	-80	20	60	-40	-40	180	300	260	80	-20	20
538	-20	-20	-20	20	0	-20	160	440	340	140	40	60
539	80	40	-60	-60	60	-20	120	560	380	200	100	100
540	200	80	-140	-140	160	-40	20	600	340	220	140	120
541	360	120	-260	-220	300	-80	-100	640	300	200	140	140
542	540	180	-380	-340	460	-120	-220	700	280	200	160	160
543	660	240	-440	-440	540	-120	-300	800	280	220	200	180
544	800	300	-500	-540	660	-120	-380	900	300	240	240	200
545	940	360	-560	-640	760	-120	-480	980	320	260	260	220
546	1040	400	-620	-720	820	-120	-560	1020	260	200	220	220
547	1080	380	-680	-740	880	-160	-560	980	200	120	160	180
548	1080	360	-740	-740	900	-200	-580	880	140	40	80	140
549	1080	340	-740	-720	900	-200	-560	780	80	-40	20	120
550	1020	320	-700	-680	860	-180	-520	640	40	-80	-20	100
551	880	340	-540	-600	700	-100	-500	360	0	-80	-20	140
552	680	360	-340	-520	520	20	-500	20	-20	-60	20	180
553	500	360	-140	-420	320	120	-500	-320	-80	-80	20	200
554	380	360	-40	-360	220	160	-500	-540	-140	-100	20	200
555	280	360	80	-320	120	220	-520	-760	-140	-80	20	220
556	180	380	200	-280	0	280	-520	-920	-120	-40	60	240
557	100	400	300	-260	-100	340	-540	-1040	-120	0	80	260
558	40	360	340	-220	-160	360	-540	-1160	-140	0	100	280
559	-40	320	380	-160	-220	360	-480	-1180	-160	0	80	260
560	-120	320	420	-100	-260	360	-420	-1120	-160	0	60	260
561	-140	300	420	-80	-280	360	-360	-1040	-160	-20	60	240
562	-160	260	400	-40	-280	340	-300	-980	-180	-60	20	220
563	-180	220	380	0	-280	300	-260	-920	-200	-100	-20	180
564	-200	180	360	20	-280	260	-220	-860	-220	-100	-40	140
565	-180	120	300	40	-240	200	-180	-760	-200	-100	-40	100
566	-180	60	260	60	-220	140	-140	-660	-200	-120	-80	80
567	-180	20	220	80	-200	120	-120	-540	-200	-120	-100	60
568	-160	-20	160	80	-160	80	-100	-440	-140	-120	-100	40
569	-140	-40	120	80	-140	40	-80	-360	-120	-100	-100	40
570	-120	-20	100	80	-120	40	-60	-320	-100	-80	-100	40
571	-100	-20	80	80	-100	20	-40	-260	-60	-80	-80	40
572	-100	-40	60	80	-80	20	-20	-220	-40	-80	-80	40
573	-100	-40	60	60	-80	20	0	-180	-20	-80	-80	40
574	-100	-40	60	60	-80	20	20	-160	0	-60	-80	40
575	-80	-40	60	60	-80	0	0	-140	0	-60	-80	20
576	-80	-20	60	60	-80	20	20	-120	0	-40	-60	20
577	-80	-20	60	60	-80	40	20	-100	0	-40	-60	20
578	-80	-20	60	60	-60	20	20	-100	0	-40	-60	20
579	-80	-20	60	60	-60	20	20	-100	0	-40	-60	20
580	-80	-20	60	40	-60	20	20	-80	0	-40	-60	20
581	-80	-20	60	40	-60	20	20	-60	20	-40	-40	20
582	-60	-20	60	40	-60	20	40	-60	40	-40	-40	40
583	-60	-20	60	40	-60	20	40	-60	40	-40	-40	40
584	-60	-20	60	40	-60	20	40	-60	20	-40	-40	40
585	-60	-20	40	40	-60	20	40	-60	20	-40	-40	40
586	-60	-20	60	40	-60	20	40	-60	20	-40	-40	40
587	-60	-20	60	40	-60	20	40	-40	20	-40	-40	40
588	-60	-20	40	40	-60	20	40	-20	20	-40	-40	40
589	-60	-20	40	40	-60	20	40	-20	20	-40	-40	40
590	-60	-20	40	40	-60	20	40	-20	40	-40	-40	40
591	-60	-20	40	40	-40	20	40	-20	40	-40	-40	40
592	-60	-20	40	40	-40	20	40	-20	40	-40	-40	40
593	-40	0	40	40	-40	20	40	-20	40	-20	-40	40
594	-40	20	40	20	-40	20	40	-20	40	0	-40	40
595	-40	0	40	20	-40	20	40	-20	40	-20	-40	40
596	-40	-20	40	20	-40	20	40	-20	40	-20	-40	40
597	-40	0	40	20	-40	20	40	-20	40	-20	-40	40
598	-20	20	20	20	-20	20	40	0	40	-20	-40	40
599	0	20	20	0	-20	20	40	20	40	-20	-40	40
600	-20	20	20	0	-20	20	40	20	40	-20	-40	40
601	-20	0	20	0	-20	20	40	20	40	-20	-40	40
602	-20	0	20	0	-20	20	40	20	40	-20	-40	40
603	-20	20	20	0	-20	20	40	20	40	-20	-40	40
604	-20	20	20	0	-20	20	20	20	40	-20	-40	40
605	-20	0	20	0	-20	20	20	20	40	-20	-40	40
606	-20	0	20	0	-20	20	20	40	60	-20	-40	40
607	-20	0	20	0	-20	20	20	40	40	-20	-40	40
608	-20	0	20	0	-20	20	20	40	40	-20	-40	40
609	-20	20	20	0	-20	20	20	40	40	0	-40	40
610	-20	20	20	0	-20	20	20	40	40	0	-40	40
611	0	0	0	0	0	0	20	40	40	0	-40	40
612	0	0	0	0	0	0	20	40	40	0	-40	60
613	0	20	20	0	-20	20	20	40	40	0	-40	60
614	0	20	20	0	-20	20	20	60	40	0	-40	60
615	0	20	0	0	0	0	0	80	40	0	-40	60
616	0	20	20	0	0	0	0	80	40	0	-20	60
617	0	20	20	0	0	20	0	80	60	0	-20	60
618	20	20	0	-20	20	20	0	80	60	0	-20	60
619	40	20	0	-40	20	20	0	100	60	0	-20	60
620	40	20	0	-40	20	20	0	100	60	0	-20	60
621	40	20	0	-40	20	20	0	100	60	0	-20	60
622	40	20	-20	-40	20	0	0	100	60	0	-20	60
623	40	20	-20	-40	20	0	0	120	60	20	-20	60
624	40	20	-20	-40	20	0	0	140	60	20	-20	60
625	40	20	-20	-40	20	0	-20	160	60	20	-20	60
626	40	40	-20	-40	20	0	-20	160	60	20	-20	60
627	40	40	-20	-40	20	0	-20	160	60	20	-20	60
628	40	40	-20	-40	20	0	-20	160	60	20	-20	60
629	40	40	-20	-40	20	0	-20	180	60	20	-20	60
630	60	40	-20	-40	40	0	-20	200	60	20	-20	60
631	80	40	-40	-60	60	-20	-20	200	60	20	-20	60
632	80	40	-60	-60	80	-20	-20	200	80	20	-20	60
633	80	40	-40	-60	60	-20	-20	220	80	20	0	60
634	80	40	-40	-60	60	-20	-20	240	80	40	0	60
635	100	40	-60	-60	80	-20	-20	260	80	40	0	60
636	120	40	-60	-80	80	-20	-40	260	80	40	0	60
637	140	40	-80	-80	100	-20	-40	260	80	40	0	60
638	120	40	-80	-80	100	-20	-40	280	80	40	0	60
639	120	60	-60	-80	100	-20	-40	300	100	40	0	60
640	120	60	-60	-80	100	0	-40	320	100	40	0	60
641	120	60	-80	-100	100	-20	-40	320	100	40	0	60
642	140	60	-80	-100	100	-20	-40	320	100	40	20	60
643	140	80	-80	-100	100	-20	-40	340	100	60	40	80
644	140	80	-80	-100	120	-20	-40	360	120	80	40	80
645	160	80	-100	-120	140	-20	-40	380	120	80	40	80
646	180	80	-100	-120	140	-20	-40	380	120	80	40	80
647	180	80	-100	-120	140	-20	-40	380	120	80	40	80
648	180	80	-100	-120	140	-20	-40	400	120	80	40	80
649	180	80	-100	-140	140	-20	-40	420	140	80	40	80
650	180	80	-100	-140	140	-20	-40	440	140	80	40	80
651	180	80	-120	-140	140	-20	-40	440	140	80	40	80
652	180	80	-120	-140	140	-20	-40	440	140	80	40	80
653	180	100	-100	-140	140	-20	-40	440	160	80	40	80
654	200	100	-100	-140	160	-20	-40	440	160	80	40	100
655	220	100	-100	-160	160	-20	-40	460	160	100	60	100
656	180	100	-80	-140	140	0	-40	460	180	120	80	100
657	180	100	-80	-140	140	0	-20	460	180	120	80	100
658	200	100	-80	-160	140	0	-20	460	180	120	80	100
659	200	120	-80	-160	140	0	-20	480	180	120	80	100
660	200	140	-80	-160	140	20	-20	480	180	120	80	100
661	200	140	-80	-160	160	20	-20	480	180	120	80	100
662	200	120	-80	-160	140	20	-20	460	180	120	80	100
663	200	120	-80	-160	120	20	-20	460	180	120	80	100
664	200	120	-80	-160	120	20	-20	460	180	120	80	100
665	200	120	-80	-160	140	20	-20	460	180	120	80	120
666	200	120	-60	-160	120	40	-20	460	180	140	80	120
667	200	120	-60	-160	120	60	-20	460	200	140	80	120
668	200	120	-60	-160	120	40	-20	440	200	140	80	120
669	200	120	-60	-160	120	20	-20	400	180	140	80	120
670	180	140	-40	-160	120	40	-20	400	180	140	80	120
671	180	140	-40	-160	120	40	-20	400	200	140	80	120
672	160	140	-40	-160	100	40	0	380	200	140	80	120
673	160	160	-20	-160	80	60	20	360	200	140	80	120
674	160	140	-20	-140	80	60	20	340	200	140	80	120
675	140	120	-20	-120	80	60	20	320	200	140	80	120
676	120	120	0	-120	60	60	20	300	180	140	80	120
677	100	120	20	-120	40	80	20	280	180	140	80	120
678	120	120	20	-120	60	60	20	260	180	140	80	120
679	100	120	20	-120	40	80	20	240	180	140	80	120
680	80	120	20	-100	40	80	20	220	180	120	80	120
681	60	100	20	-80	20	60	20	200	160	100	60	100
682	40	100	40	-60	0	60	20	180	140	100	60	100
683	40	100	60	-60	-20	60	40	160	140	100	60	100
684	40	80	40	-60	-20	60	40	140	140	100	60	100
685	40	60	40	-40	-20	60	40	120	140	100	40	100
686	40	80	60	-40	-20	60	40	120	140	80	40	100
687	40	80	80	-40	-20	60	40	120	140	80	40	100
688	20	80	60	-40	-20	60	40	100	140	80	40	100
689	0	60	60	-40	-20	60	40	80	140	80	40	100
690	-20	60	60	-20	-40	60	40	60	120	80	20	80
691	-40	60	60	-20	-60	60	40	40	100	80	20	80
692	-40	60	80	-20	-60	60	40	40	100	80	20	80
693	-40	60	80	-20	-60	60	40	40	100	60	20	80
694	-40	40	80	0	-60	60	40	40	100	60	0	80
695	-40	20	60	0	-60	40	40	20	100	60	0	80
696	-40	20	80	20	-60	60	40	0	100	60	0	60
697	-60	20	80	20	-60	60	40	0	100	60	0	60
698	-60	20	80	20	-60	60	40	0	100	60	0	60
699	-60	20	80	20	-60	60	40	0	100	60	0	60
700	-60	20	80	20	-60	60	40	0	100	60	0	60
701	-60	20	80	20	-60	60	40	-20	100	60	0	60
702	-60	20	80	20	-60	40	40	-20	80	60	0	60
703	-60	20	80	20	-60	40	40	-20	80	60	0	60
704	-60	20	80	20	-60	40	40	-20	80	60	-20	60
705	-40	20	60	20	-60	40	40	-20	80	40	-20	60
706	-60	20	60	20	-60	40	40	-20	80	40	-20	60
707	-60	20	60	20	-60	40	40	-20	80	40	-20	60
708	-60	20	60	20	-60	40	40	-20	80	40	-20	60
709	-60	20	60	20	-60	40	40	-20	80	40	-20	60
710	-60	20	60	20	-60	40	40	-20	80	40	-20	60
711	-60	20	60	20	-60	40	40	-20	80	40	-20	60
712	-60	20	60	20	-60	40	40	-20	80	40	-20	60
713	-60	20	80	20	-80	40	40	-20	80	40	-20	60
714	-60	0	60	20	-60	20	40	-20	80	20	-20	60
715	-60	0	60	20	-60	20	40	-20	80	20	-20	60
716	-60	0	60	20	-60	40	40	-20	80	20	-20	60
717	-60	20	60	20	-60	60	40	-20	80	20	-20	60
718	-60	20	60	20	-60	40	40	-20	80	20	-20	40
719	-40	20	60	20	-60	40	40	-20	80	20	-20	40
720	-40	40	80	20	-60	60	40	-20	80	20	-20	40
721	-40	20	60	20	-60	40	40	-20	80	20	-20	40
722	-40	0	40	20	-60	20	40	-20	80	20	-20	40
723	-40	20	40	20	-60	20	40	-20	80	20	-20	40
724	-40	20	40	20	-60	20	40	-40	60	20	-20	40
725	-40	0	40	20	-60	20	40	-40	60	20	-20	40
726	-60	0	60	20	-60	40	20	-20	60	40	-20	60
727	-60	0	60	20	-60	40	20	-20	60	40	-20	60
728	-40	0	60	20	-40	40	20	-20	60	20	-20	40
729	-40	0	60	20	-40	40	20	-20	60	20	-20	40
730	-40	0	60	20	-40	40	40	-20	60	20	-20	40
731	-40	0	60	20	-40	40	40	-20	60	20	-20	40
732	-40	0	40	20	-40	20	40	-20	60	20	-20	40
733	-40	0	60	20	-60	40	40	-20	60	20	-20	40
734	-40	0	60	20	-60	40	40	-20	60	20	-20	40
735	-40	0	40	20	-40	20	40	-20	60	20	-20	40
736	-40	0	40	20	-40	20	40	-20	60	20	-20	40
737	-40	0	40	20	-40	20	40	-20	60	20	-20	40
738	-40	0	40	20	-40	20	40	-20	60	20	-20	40
739	-40	0	40	20	-40	20	40	-20	60	20	-20	40
740	-40	20	60	20	-40	40	40	-20	60	20	-20	40
741	-40	20	60	20	-40	40	40	-20	60	20	-20	40
742	-20	20	40	0	-40	20	40	-20	60	20	-20	40
743	-20	20	40	0	-40	20	40	-20	80	20	-20	40
744	-40	20	60	20	-60	40	40	-20	80	20	-20	40
745	-40	20	60	20	-40	40	40	-20	80	20	-20	40
746	-40	20	60	20	-40	40	40	-20	80	20	-20	40
747	-40	20	60	20	-40	40	40	-20	80	20	-20	40
748	-40	0	60	20	-60	20	40	-20	80	20	-20	40
749	-40	0	40	20	-40	20	40	-20	80	20	-20	40
750	-60	0	60	20	-60	40	40	-20	80	20	-20	40
751	-60	0	40	20	-60	40	20	-20	60	20	-20	40
752	-60	0	40	20	-60	20	20	-20	60	20	-20	40
753	-60	0	40	20	-60	20	40	-20	80	20	-20	40
754	-40	0	40	20	-40	20	40	-20	80	20	-20	40
755	-40	0	40	20	-40	20	40	-20	80	20	-20	40
756	-40	0	40	20	-40	20	40	-20	80	20	-20	40
757	-40	0	40	20	-40	20	40	-20	80	20	-20	40
758	-40	0	40	20	-40	20	40	-20	80	20	-20	40
759	-40	0	60	20	-60	40	40	-20	80	20	-20	40
760	-40	0	60	20	-60	40	40	-20	80	20	-20	40
761	-40	0	60	20	-60	40	40	-20	80	20	-20	40
762	-40	0	60	20	-60	20	40	-20	80	20	-20	40
763	-40	20	60	20	-60	40	40	-20	80	20	-20	40
764	-40	20	60	20	-60	40	40	-20	80	20	-20	40
765	-60	20	60	20	-60	40	40	-20	80	20	-20	40
766	-60	20	60	20	-60	40	40	-40	80	20	-20	40
767	-60	20	60	20	-60	40	40	-40	80	20	-20	40
768	-60	20	60	20	-60	40	40	-40	80	20	-20	40
769	-60	20	60	20	-60	40	40	-40	80	20	-40	40
770	-60	20	60	20	-60	40	40	-40	80	20	-40	40
771	-60	20	60	20	-60	40	40	-40	80	20	-40	40
772	-60	20	60	20	-60	40	40	-40	80	20	-40	40
773	-60	20	60	20	-60	40	40	-40	80	20	-40	40
774	-60	20	60	20	-60	40	40	-40	80	20	-40	40
775	-40	20	60	20	-60	40	40	-40	80	20	-40	40
776	-40	20	60	20	-60	40	40	-40	80	20	-20	40
777	-60	20	60	40	-60	40	40	-40	80	20	-20	40
778	-80	20	60	40	-60	40	40	-40	80	20	-20	40
779	-80	20	60	40	-60	40	40	-40	80	20	-20	40
780	-80	20	60	40	-60	40	40	-40	80	20	-20	40
781	-80	20	60	40	-60	40	40	-40	80	20	-20	40
782	-60	20	60	20	-60	40	40	-40	80	20	-20	40
783	-40	20	60	20	-60	40	40	-40	80	20	-20	40
784	-60	0	60	20	-60	40	40	-40	80	20	-20	40
785	-60	0	60	20	-60	40	40	-40	80	20	-20	60
786	-60	20	80	20	-60	40	60	-20	100	40	0	80
787	-60	40	80	20	-60	40	60	-20	100	60	20	80
788	-60	40	80	20	-60	40	60	-20	100	60	20	80
789	-40	40	80	0	-60	40	60	-20	100	60	20	80
790	-40	40	80	0	-60	40	60	-20	100	60	20	80
791	-40	40	80	0	-60	60	60	0	100	60	20	80
792	-40	40	80	0	-60	60	60	20	120	60	20	80
793	-40	40	80	0	-60	60	60	0	120	60	20	80
794	-40	40	80	0	-60	60	60	0	120	60	20	80
795	-20	40	60	0	-40	40	60	20	120	40	20	80
796	-40	40	80	0	-60	60	60	20	120	60	20	80
797	-60	40	80	0	-60	60	80	20	120	80	20	80
798	-40	40	80	0	-60	60	80	20	140	80	20	80
799	-40	40	80	0	-60	60	80	20	120	60	20	80
800	-40	20	60	0	-40	40	80	40	120	60	20	80
801	-20	20	40	0	-20	40	60	40	140	60	20	80
802	-20	20	40	0	-40	40	60	40	140	60	20	80
803	-40	40	80	0	-60	60	60	40	140	60	20	80
804	-20	60	80	-20	-60	60	60	40	140	60	20	80
805	-20	60	80	-20	-60	60	60	40	140	80	40	100
806	-20	60	80	-20	-60	60	60	40	140	80	40	100
807	-20	80	80	-20	-60	80	40	40	140	80	40	100
808	0	100	80	-40	-40	80	40	60	140	80	40	100
809	20	100	80	-60	-40	80	40	60	140	80	40	100
810	0	100	80	-40	-40	80	40	60	140	80	40	100
811	-20	80	80	-40	-40	80	40	60	140	80	60	100
812	-20	60	80	-40	-40	80	40	40	140	80	60	100
813	-20	60	80	-40	-40	80	20	20	120	60	40	100
814	0	60	80	-40	-40	80	20	20	100	60	40	100
815	0	60	80	-40	-40	60	20	20	100	60	40	100
816	0	60	80	-40	-40	60	20	20	100	60	40	100
817	20	60	40	-40	-20	40	20	20	100	40	20	80
818	0	60	40	-40	-20	60	20	0	80	20	0	60
819	-20	40	60	-20	-40	40	20	-20	60	20	0	60
820	-40	20	60	0	-60	20	20	-40	60	20	0	60
821	-20	20	40	0	-40	20	0	-40	60	20	0	60
822	0	40	40	0	-20	40	-20	-40	80	20	0	60
823	-20	40	40	0	-20	40	-20	-40	80	20	0	60
824	-40	20	40	0	-40	40	-20	-40	60	20	0	60
825	-60	20	60	20	-60	40	-20	-40	40	0	0	60
826	-60	20	80	20	-60	40	-20	-60	60	0	0	60
827	-60	20	80	0	-60	40	-20	-60	60	0	-20	60
828	-60	20	80	20	-60	40	-20	-60	60	0	-20	60
829	-60	20	80	20	-60	40	-20	-60	60	0	-20	60
830	-60	20	80	20	-60	40	-20	-60	60	0	-20	60
831	-60	0	60	20	-60	40	0	-60	60	-20	-20	60
832	-60	0	60	20	-60	40	20	-60	60	-20	-20	60
833	-60	0	80	20	-80	40	20	-60	60	-20	-20	60
834	-60	-20	60	40	-60	20	20	-60	60	-20	-20	60
835	-60	-20	40	40	-60	0	20	-60	40	-20	-40	40
836	-80	-20	60	40	-60	20	20	-60	40	-20	-20	40
837	-80	-20	60	40	-60	20	20	-80	40	-20	-20	60
838	-80	-20	60	40	-60	20	20	-80	40	-20	-20	60
839	-80	-20	60	40	-60	20	20	-80	40	-20	-20	60
840	-80	-20	60	40	-80	20	20	-80	40	-20	-20	60
841	-80	-20	60	40	-80	20	20	-80	40	-20	-20	60
842	-80	-20	60	40	-80	20	20	-80	40	-20	-20	60
843	-80	-20	60	40	-80	20	20	-80	40	-20	-20	60
844	-80	-20	40	40	-60	20	20	-80	40	-20	-20	60
845	-80	-20	40	40	-60	20	20	-80	40	-20	-20	60
846	-80	-20	60	40	-80	20	20	-80	40	-20	-20	60
847	-80	0	80	40	-80	20	20	-80	40	-20	-20	60
848	-80	0	60	40	-80	20	20	-80	40	-20	-20	60
849	-80	-20	60	40	-80	20	20	-80	40	-20	-20	60
850	-80	-20	60	40	-80	20	20	-80	40	-20	-20	60
851	-80	-20	60	40	-80	20	20	-80	40	-20	-20	60
852	-80	-20	60	40	-80	20	20	-80	40	-20	-20	60
853	-80	-20	60	60	-80	20	20	-80	40	0	-20	60
854	-80	-20	60	60	-80	20	20	-80	40	0	-20	60
855	-80	-20	60	60	-80	20	20	-80	40	0	-20	60
856	-100	-20	60	60	-80	20	20	-80	60	0	-20	60
857	-100	-20	80	60	-80	40	20	-80	60	0	-20	60
858	-100	-20	80	60	-80	40	20	-80	60	0	-20	60
859	-100	-40	80	60	-80	20	20	-80	60	0	-20	60
860	-120	-40	80	60	-100	20	40	-80	60	0	-20	60
861	-120	-60	60	80	-80	0	60	-80	60	0	-20	60
862	-120	-60	60	80	-80	-20	60	-60	60	-20	-20	40
863	-120	-60	80	80	-100	0	80	-40	60	-20	-20	40
864	-140	-80	80	120	-120	0	100	-20	80	-20	-40	40
865	-160	-100	60	120	-120	-20	120	-20	80	-20	-40	40
866	-140	-100	40	120	-100	-40	140	0	80	-20	-60	20
867	-140	-100	20	120	-80	-40	140	20	80	-20	-80	0
868	-140	-100	20	120	-80	-40	160	60	100	-20	-60	-20
869	-140	-100	40	120	-100	-40	180	120	140	0	-40	-20
870	-140	-80	60	100	-100	-20	180	200	220	80	0	20
871	-100	-40	80	60	-100	20	180	340	320	160	60	60
872	-40	40	80	0	-40	60	200	520	420	240	140	100
873	60	100	40	-80	20	60	160	660	480	320	200	160
874	180	160	-40	-160	120	60	60	720	480	360	260	220
875	340	200	-140	-260	240	40	-60	780	460	360	300	240
876	500	260	-240	-360	360	20	-180	880	460	380	340	280
877	640	320	-340	-480	480	0	-300	1000	480	420	380	320
878	780	400	-380	-600	580	20	-420	1120	500	460	420	360
879	880	480	-420	-680	640	40	-480	1200	520	460	440	360
880	960	500	-480	-740	720	0	-520	1260	500	420	420	360
881	1020	480	-540	-760	780	-40	-520	1220	440	340	360	320
882	1020	440	-580	-740	800	-80	-520	1140	360	260	280	280
883	1000	400	-580	-720	800	-100	-500	1060	300	200	220	240
884	980	380	-580	-680	780	-100	-520	860	220	140	160	240
885	860	380	-500	-620	680	-60	-560	540	120	80	140	240
886	680	380	-320	-520	500	40	-580	120	20	40	120	240
887	500	360	-160	-420	320	100	-580	-260	-80	-20	100	240
888	360	320	-60	-340	200	140	-600	-560	-160	-60	80	240
889	240	320	80	-280	80	200	-640	-840	-220	-60	80	240
890	180	320	160	-240	20	240	-680	-1000	-260	-80	80	240
891	120	300	200	-220	-40	240	-680	-1160	-300	-100	60	240
892	40	280	260	-180	-100	260	-640	-1280	-340	-120	40	240
893	-40	260	280	-120	-160	280	-600	-1320	-360	-120	20	240
894	-60	240	300	-80	-180	260	-520	-1260	-360	-120	20	220
895	-100	200	300	-40	-200	240	-440	-1160	-360	-120	0	200
896	-160	160	320	0	-240	240	-380	-1060	-360	-140	-20	160
897	-160	140	300	20	-240	220	-320	-960	-340	-160	-40	140
898	-160	100	240	40	-200	180	-240	-840	-320	-160	-40	120
899	-160	60	200	40	-180	140	-200	-720	-280	-160	-40	100
900	-160	40	180	40	-160	100	-160	-580	-220	-140	-40	80
901	-140	20	160	40	-140	80	-120	-480	-180	-100	-40	80
902	-140	0	140	60	-140	60	-80	-400	-120	-80	-40	80
903	-120	0	120	60	-120	60	-60	-320	-80	-60	-20	80
904	-100	0	100	40	-100	60	-40	-260	-60	-40	-20	80
905	-80	0	80	40	-80	60	-20	-200	-40	-20	-20	80
906	-80	0	80	40	-80	60	0	-160	-20	-20	-20	80
907	-60	0	60	40	-80	40	20	-140	0	-20	-20	80
908	-60	0	40	40	-60	20	40	-120	20	-20	-20	60
909	-60	0	60	40	-60	20	40	-100	20	-20	-20	40
910	-60	0	80	40	-60	20	40	-80	20	-20	-20	40
911	-60	0	60	40	-60	20	40	-80	20	0	-20	40
912	-60	-20	40	40	-60	20	40	-80	40	20	-20	40
913	-80	-20	60	40	-60	20	40	-80	40	20	-20	60
914	-80	-20	60	40	-60	20	40	-60	40	20	-20	60
915	-60	-20	40	40	-60	20	40	-60	40	20	-20	60
916	-60	-20	60	40	-60	20	40	-60	40	20	0	60
917	-60	0	60	40	-60	40	40	-40	60	20	0	60
918	-60	0	60	40	-60	40	40	-20	60	20	0	60
919	-60	0	60	40	-60	40	40	-20	60	20	0	60
920	-60	0	60	40	-60	40	60	-20	60	20	0	60
921	-60	0	60	40	-60	40	60	-20	60	20	0	60
922	-60	20	60	20	-60	40	60	-20	60	20	0	60
923	-60	20	60	20	-60	40	60	-20	60	20	0	60
924	-60	0	60	20	-60	20	60	0	60	20	0	60
925	-60	-20	60	20	-60	20	60	20	60	20	0	60
926	-40	0	60	20	-60	20	60	20	80	20	20	60
927	-40	20	60	20	-60	40	40	20	80	20	20	60
928	-40	20	40	20	-40	20	40	20	80	20	20	60
929	-40	20	40	20	-40	20	60	20	80	40	20	60
930	-40	20	40	20	-40	20	60	20	80	40	20	60
931	-40	0	40	20	-40	20	60	40	80	40	20	60
932	-40	20	40	20	-40	20	60	40	80	40	20	60
933	-40	20	60	20	-40	40	60	40	80	40	20	60
934	-40	20	60	20	-40	40	60	60	80	40	20	60
935	-20	20	40	20	-40	20	60	60	80	40	20	60
936	-20	20	40	20	-40	20	60	60	80	40	20	60
937	-20	20	40	20	-40	20	60	60	80	40	20	60
938	-20	20	40	20	-40	20	60	60	80	40	20	80
939	-20	20	40	20	-40	20	60	60	80	40	20	80
940	-40	20	40	20	-40	40	60	80	80	40	20	80
941	-40	20	40	20	-40	20	60	80	100	40	20	80
942	-40	20	40	20	-40	20	60	80	100	40	20	80
943	-20	20	40	0	-40	20	60	100	100	40	20	80
944	-20	20	40	0	-40	20	60	120	100	40	20	80
945	-20	20	40	0	-20	20	60	120	100	40	20	80
946	-20	20	40	0	-40	20	60	120	100	40	20	80
947	0	20	20	0	-20	20	60	120	100	40	20	80
948	20	20	20	-20	0	20	40	120	100	40	20	60
949	0	20	20	-20	-20	20	40	120	100	40	20	60
950	0	20	20	-20	-20	20	40	120	100	40	20	60
951	0	20	20	-20	-20	20	40	140	100	60	20	80
952	0	20	20	-20	-20	20	40	160	100	60	20	80
953	0	20	20	-20	-20	20	40	160	100	60	20	80
954	20	20	20	-20	0	20	40	160	100	60	20	80
955	40	20	0	-20	20	20	40	180	100	60	20	80
956	20	20	20	-20	0	20	40	200	120	60	40	80
957	40	40	0	-20	20	20	40	200	120	60	40	80
958	40	40	0	-20	20	20	40	200	120	60	40	80
959	20	40	20	-20	0	20	40	220	120	60	40	80
960	20	40	20	-20	0	20	40	240	120	60	40	80
961	40	40	-20	-40	20	20	40	240	120	60	40	80
962	60	40	-20	-40	40	20	40	260	120	60	40	80
963	40	40	-20	-40	20	20	40	260	120	80	40	80
964	60	40	-20	-40	40	20	40	280	120	80	40	80
965	60	40	-20	-40	40	20	40	280	140	80	60	80
966	60	40	-20	-60	40	20	40	300	160	80	60	100
967	60	60	-20	-60	40	20	40	320	160	80	60	100
968	60	60	-20	-60	40	0	40	320	160	80	60	100
969	60	60	-20	-60	40	0	40	340	160	80	60	100
970	80	60	-20	-60	60	20	40	360	160	80	60	100
971	100	60	-40	-80	60	20	40	380	160	100	60	100
972	120	60	-40	-100	60	20	40	400	160	120	60	100
973	100	60	-40	-80	60	20	40	420	180	120	80	100
974	100	60	-40	-80	80	20	40	420	180	120	80	100
975	100	60	-40	-80	80	20	40	420	180	120	80	100
976	100	60	-40	-80	80	20	40	420	200	120	80	100
977	120	60	-40	-80	80	20	40	440	200	120	80	100
978	140	60	-60	-100	100	20	20	460	200	120	80	120
979	140	80	-60	-120	100	20	20	480	200	120	100	120
980	140	100	-60	-120	80	20	20	480	220	140	100	120
981	160	80	-80	-120	100	0	20	500	220	140	100	120
982	160	100	-60	-120	100	20	20	520	220	140	100	120
983	160	120	-40	-140	100	40	40	520	220	160	100	120
984	160	100	-60	-140	120	20	40	520	220	160	120	120
985	160	100	-60	-140	120	20	40	520	240	160	120	120
986	180	120	-60	-140	120	40	40	520	260	160	120	120
987	180	140	-60	-140	120	40	40	540	260	180	120	140
988	180	120	-60	-160	120	40	40	540	260	180	120	140
989	180	120	-60	-160	120	40	40	540	260	180	120	140
990	180	120	-60	-160	120	40	40	540	260	180	120	140
991	180	120	-60	-160	120	40	40	540	260	180	140	140
992	200	140	-60	-160	120	40	40	540	260	200	140	140
993	200	140	-40	-160	120	40	40	540	280	200	140	140
994	200	140	-60	-180	120	40	40	540	260	200	140	140
995	200	140	-60	-180	140	40	40	540	260	200	140	160
996	200	160	-40	-180	120	60	40	540	260	200	140	160
997	180	140	-40	-160	100	60	40	540	260	200	140	160
998	200	140	-60	-160	120	40	40	520	260	200	140	160
999	200	140	-40	-160	120	60	40	520	260	200	140	160
1000	200	140	-40	-160	120	60	40	520	260	200	140	160
1001	200	140	-40	-160	120	40	40	520	260	200	140	160
1002	180	140	-40	-160	120	40	40	500	260	200	140	160
1003	180	140	-40	-160	100	40	40	480	260	200	140	160
1004	180	140	-20	-160	80	60	40	460	260	200	140	160
1005	180	140	-20	-160	80	60	40	440	260	200	140	160
1006	160	140	-20	-160	80	60	40	400	260	200	140	160
1007	160	140	-20	-160	80	60	40	380	260	180	140	160
1008	160	140	-20	-140	80	60	40	360	240	180	140	160
1009	140	140	0	-140	80	80	60	340	240	180	140	160
1010	140	140	20	-140	80	80	60	320	240	180	120	160
1011	140	140	0	-140	80	80	60	300	240	180	120	140
1012	120	140	20	-140	60	80	60	280	220	180	100	140
1013	100	120	40	-120	40	80	60	260	220	160	100	140
1014	100	120	20	-120	40	60	60	240	220	140	100	140
1015	100	120	20	-100	40	60	60	200	200	140	100	140
1016	80	120	40	-80	20	80	60	180	200	140	100	140
1017	60	100	40	-80	20	60	60	160	200	120	80	120
1018	40	80	40	-60	20	60	60	140	180	100	80	100
1019	40	60	40	-40	20	60	60	120	160	120	80	120
1020	40	60	40	-40	0	60	60	120	160	120	80	120
1021	40	60	40	-40	-20	60	60	120	160	100	60	120
1022	20	60	40	-40	-40	60	60	100	160	80	40	100
1023	0	60	40	-40	-40	60	60	80	160	80	40	100
1024	0	60	40	-40	-40	60	60	60	140	80	40	100
1025	0	60	40	-40	-20	40	60	40	120	80	40	100
1026	0	60	60	-40	-40	60	60	20	140	80	40	100
1027	0	60	60	-40	-40	60	60	0	140	80	40	100
1028	0	40	40	-20	-20	40	60	0	120	80	40	100
1029	-20	20	60	0	-40	40	60	0	100	80	40	80
1030	-40	20	60	20	-60	40	60	0	100	60	40	80
1031	-20	20	60	0	-40	40	60	0	100	60	40	80
1032	-20	20	40	0	-20	40	60	0	100	60	40	80
1033	-20	20	40	0	-40	40	60	0	100	60	40	80
1034	-20	20	40	0	-60	40	60	-20	100	60	20	80
1035	-40	20	40	20	-40	20	60	-40	80	60	20	80
1036	-60	0	40	40	-40	20	60	-60	80	60	20	80
1037	-40	0	40	20	-40	20	60	-60	80	40	20	80
1038	-40	0	40	20	-40	20	60	-40	80	40	20	80
1039	-40	0	40	20	-40	20	60	-40	80	40	20	80
1040	-40	0	40	20	-40	20	60	-40	80	40	20	80
1041	-40	0	40	20	-40	20	60	-40	80	40	20	80
1042	-40	0	40	20	-40	20	60	-40	80	40	20	80
1043	-40	0	40	20	-40	20	60	-40	80	40	20	80
1044	-40	0	40	20	-40	20	60	-40	80	40	20	80
1045	-60	0	40	20	-40	20	60	-40	80	40	20	80
1046	-40	0	40	20	-40	20	60	-40	80	40	20	80
1047	-40	0	40	20	-40	20	60	-40	80	40	20	80
1048	-40	0	40	20	-40	20	60	-40	80	40	20	80
1049	-40	0	40	20	-40	20	60	-40	80	40	20	80
1050	-40	0	40	20	-40	20	60	-40	80	40	20	80
1051	-60	0	40	20	-60	20	60	-40	80	40	20	80
1052	-60	0	40	20	-60	20	60	-40	80	40	20	80
1053	-60	0	60	20	-60	20	60	-40	80	40	20	80
1054	-60	0	40	20	-40	20	60	-40	80	20	20	60
1055	-60	0	40	20	-40	20	60	-40	80	20	20	60
1056	-60	40	100	20	-80	60	60	-40	80	20	20	60
1057	-40	0	40	20	-40	20	60	-40	80	20	20	80
1058	-40	-20	40	20	-40	20	60	-40	80	20	20	80
1059	-40	0	40	20	-40	20	60	-40	80	20	20	80
1060	-40	20	40	20	-40	20	60	-40	80	20	20	80
1061	-40	20	40	20	-40	20	60	-40	80	20	20	80
1062	-40	0	40	20	-40	20	60	-40	80	20	0	80
1063	-40	0	40	20	-40	20	60	-20	80	20	0	80
1064	-40	0	40	20	-40	20	60	-20	80	20	0	80
1065	-40	0	40	20	-40	20	60	-20	80	20	0	80
1066	-40	0	40	20	-40	20	60	-20	80	20	0	80
1067	-40	0	40	20	-40	20	60	-20	80	20	0	80
1068	-40	0	40	20	-40	20	60	-20	80	20	0	80
1069	-40	0	40	20	-40	20	60	-20	80	20	0	80
1070	-40	0	40	20	-40	20	60	-20	80	20	0	80
1071	-40	0	20	20	-40	20	60	-20	80	20	0	80
1072	-40	0	20	20	-40	20	60	-20	80	20	0	80
1073	-40	0	40	20	-40	20	60	-20	80	20	0	80
1074	-40	0	40	20	-20	20	60	-20	80	20	0	80
1075	-40	0	40	20	-20	20	60	-20	80	20	0	80
1076	-40	0	40	20	-20	20	60	-20	80	20	0	80
1077	-40	0	40	20	-20	20	60	-20	80	20	0	80
1078	-40	-20	20	20	-20	0	60	-20	80	20	0	80
1079	-40	-20	20	20	-40	20	60	-20	80	20	0	80
1080	-40	0	20	20	-40	20	60	-20	80	20	0	80
1081	-40	-20	20	40	-40	0	60	-20	80	20	0	80
1082	-40	-20	20	40	-40	0	60	-20	80	20	0	80
1083	-40	-20	40	40	-40	20	60	-20	80	20	0	80
1084	-40	-20	40	40	-40	20	60	-20	80	20	0	80
1085	-40	-20	40	40	-40	20	60	-20	80	40	20	80
1086	-40	0	40	40	-40	20	60	-20	80	60	20	80
1087	-40	0	40	40	-40	20	60	-20	80	40	20	80
1088	-40	0	40	40	-40	20	60	-20	80	20	20	80
1089	-40	0	40	20	-40	20	60	-20	80	40	20	80
1090	-40	0	40	20	-40	20	60	-20	80	40	20	80
1091	-40	-20	20	20	-40	0	60	-40	80	40	20	80
1092	-40	-20	20	20	-40	0	60	-40	80	40	20	80
1093	-40	-20	40	20	-40	20	60	-40	80	40	20	80
1094	-40	-20	20	20	-40	0	60	-40	80	40	20	80
1095	-40	-20	40	40	-40	0	60	-40	80	40	20	80
1096	-40	-20	60	40	-40	20	60	-40	80	40	20	80
1097	-40	-20	40	40	-40	20	60	-40	80	40	20	80
1098	-40	-20	20	40	-40	20	60	-40	80	40	20	80
1099	-60	-20	40	40	-40	20	60	-40	80	40	20	80
1100	-60	-20	40	40	-40	20	60	-40	80	40	20	80
1101	-40	-20	40	40	-40	20	60	-40	80	40	20	80
1102	-40	-20	40	40	-40	20	60	-40	80	40	20	80
1103	-60	-20	40	40	-60	20	60	-40	80	40	20	80
1104	-60	-20	40	40	-60	20	60	-40	80	40	20	80
1105	-60	-20	40	40	-40	20	60	-60	80	40	20	80
1106	-60	-20	60	40	-60	40	60	-60	80	40	20	80
1107	-60	-20	60	40	-60	40	60	-60	80	40	20	80
1108	-40	-20	40	20	-40	20	60	-60	60	40	20	80
1109	-40	0	40	20	-40	20	60	-60	60	40	20	80
1110	-40	20	60	20	-40	20	60	-60	60	40	20	80
1111	-40	20	60	20	-40	20	60	-40	80	40	20	80
1112	-40	20	40	20	-40	20	60	-40	80	40	20	80
1113	-40	20	60	20	-60	40	60	-40	80	40	20	100
1114	-40	20	60	20	-60	40	60	-40	80	40	20	100
1115	-40	20	60	20	-60	40	80	-40	80	40	20	100
1116	-40	20	60	0	-60	40	80	-40	100	60	40	100
1117	-40	40	80	-20	-60	60	80	-20	100	60	40	100
1118	-20	60	60	-20	-40	60	80	-20	100	60	40	100
1119	-20	40	60	-20	-40	60	80	-20	100	60	40	100
1120	-40	40	80	0	-60	60	80	-20	100	60	40	100
1121	-40	40	60	0	-60	60	80	-20	100	60	40	100
1122	-20	40	60	0	-60	60	80	-20	100	60	40	100
1123	-20	40	60	0	-60	60	80	0	100	60	40	100
1124	-20	20	60	0	-40	40	80	0	100	60	40	100
1125	-20	20	60	0	-40	40	80	-20	100	60	40	100
1126	-40	40	80	0	-60	60	80	0	120	60	40	120
1127	-40	40	80	0	-60	60	80	20	120	60	40	120
1128	-40	40	60	0	-40	40	80	20	120	60	40	120
1129	-20	40	40	0	-40	40	80	20	120	60	40	120
1130	-20	40	60	0	-40	40	80	20	120	60	40	120
1131	-20	40	60	-20	-40	40	80	20	120	80	60	120
1132	-20	60	60	-40	-40	60	80	20	120	80	60	120
1133	0	80	80	-40	-40	80	80	40	120	80	60	120
1134	20	80	60	-40	-20	60	80	40	120	80	60	120
1135	40	80	60	-40	-20	60	80	40	140	100	60	120
1136	40	80	60	-40	-20	60	60	40	140	100	60	120
1137	40	80	60	-40	-20	60	40	40	140	100	60	120
1138	40	80	40	-60	-20	60	40	40	140	100	60	120
1139	20	80	60	-60	-20	80	40	20	140	100	60	120
1140	20	60	40	-40	-20	60	40	20	120	80	60	120
1141	20	40	20	-40	-20	40	40	20	100	60	60	120
1142	20	60	20	-40	0	40	40	20	100	80	60	120
1143	20	80	40	-40	0	60	40	20	100	80	60	120
1144	20	60	40	-40	0	40	40	20	100	80	60	120
1145	20	40	20	-20	0	20	40	-20	80	60	40	100
1146	20	20	20	-20	0	20	40	-40	80	40	20	100
1147	20	20	0	-20	0	20	40	-40	80	40	20	100
1148	20	20	0	-20	0	20	40	-40	80	40	40	100
1149	0	20	20	-20	-20	20	40	-40	80	40	40	100
1150	-20	20	20	-20	-20	20	40	-40	80	40	40	100
1151	-20	20	20	0	-20	20	40	-40	80	40	40	100
1152	-20	0	20	20	-20	0	40	-80	60	40	20	100
1153	-20	0	20	0	-20	0	40	-80	40	40	20	100
1154	-20	0	40	0	-20	0	20	-80	40	40	20	100
1155	-40	0	40	20	-40	20	20	-80	40	40	20	100
1156	-40	0	40	20	-60	40	20	-80	40	40	20	100
1157	-40	0	40	20	-60	40	20	-80	40	40	20	100
1158	-40	0	40	20	-60	20	20	-100	40	40	20	100
1159	-40	0	60	20	-60	40	20	-100	40	40	20	100
1160	-40	0	60	20	-60	40	20	-100	40	40	20	100
1161	-40	0	60	20	-60	20	20	-100	40	40	20	100
1162	-60	-20	40	40	-40	0	20	-100	40	40	20	100
1163	-80	-20	60	40	-60	20	20	-100	40	40	20	100
1164	-60	-20	60	40	-60	20	20	-100	40	40	20	100
1165	-60	-20	60	40	-60	20	20	-100	40	40	20	100
1166	-60	-20	40	40	-60	20	20	-100	40	40	20	100
1167	-60	-20	40	40	-60	20	40	-120	40	40	20	80
1168	-60	-20	40	40	-60	0	40	-120	40	40	20	80
1169	-80	-20	60	40	-60	20	40	-120	40	40	20	80
1170	-80	-20	60	40	-60	20	40	-120	40	40	20	80
1171	-80	-20	40	40	-60	20	40	-120	20	40	20	80
1172	-80	-20	40	40	-60	20	40	-120	20	40	20	80
1173	-60	0	40	40	-60	20	20	-120	20	40	20	80
1174	-60	0	40	40	-60	20	20	-120	20	40	20	80
1175	-60	0	40	40	-60	20	20	-120	20	40	20	80
1176	-60	0	60	40	-60	40	20	-120	20	40	20	80
1177	-60	0	60	40	-60	20	20	-120	20	40	20	80
1178	-60	0	40	40	-40	20	20	-120	20	40	20	100
1179	-60	0	60	40	-60	20	20	-120	20	40	20	100
1180	-60	0	80	40	-80	20	20	-120	20	40	20	100
1181	-60	0	60	40	-60	20	20	-120	20	40	20	100
1182	-60	-20	60	40	-60	20	20	-120	20	40	20	100
1183	-60	-20	60	40	-60	20	20	-120	20	40	20	100
1184	-60	-20	60	40	-60	20	20	-120	40	40	20	100
1185	-60	0	60	40	-60	20	20	-120	40	40	20	100
1186	-60	0	60	40	-60	40	40	-120	40	40	20	100
1187	-80	-20	80	40	-80	40	40	-120	40	40	20	80
1188	-80	-20	60	40	-80	20	40	-120	40	40	20	80
1189	-80	-20	60	40	-80	20	40	-100	40	40	0	80
1190	-100	-20	60	60	-80	20	60	-100	40	20	-20	80
1191	-120	-40	60	80	-80	20	80	-100	40	0	-20	80
1192	-140	-60	60	100	-80	0	100	-80	60	20	-20	80
1193	-140	-60	60	100	-100	0	120	-60	60	20	-20	60
1194	-140	-80	60	100	-100	-20	140	-40	60	0	-40	40
1195	-120	-100	40	120	-80	-40	140	-40	60	-20	-60	20
1196	-120	-120	40	120	-80	-40	140	-20	60	-20	-60	20
1197	-120	-120	40	120	-80	-40	160	40	100	20	-40	20
1198	-120	-80	40	100	-80	-20	180	140	180	80	20	60
1199	-100	-40	80	60	-80	20	200	300	280	160	80	100
1200	-40	20	40	0	-40	40	220	460	380	240	140	140
1201	80	80	0	-80	40	40	180	600	440	320	200	180
1202	200	140	-60	-180	140	40	100	700	440	340	240	220
1203	340	180	-180	-280	260	0	-20	780	420	360	280	240
1204	520	220	-300	-380	400	-40	-140	900	420	380	300	260
1205	680	280	-360	-480	520	-40	-280	1040	440	400	320	280
1206	780	340	-420	-560	600	-40	-380	1160	460	420	360	300
1207	920	400	-500	-660	700	-40	-460	1280	480	420	380	320
1208	1020	440	-580	-720	800	-80	-500	1360	440	380	360	320
1209	1060	420	-660	-740	860	-120	-500	1320	380	300	300	280
1210	1060	400	-680	-740	860	-140	-480	1280	320	240	240	240
1211	1060	380	-700	-720	880	-160	-460	1200	260	180	180	200
1212	1020	360	-700	-700	860	-180	-520	960	180	100	120	180
1213	940	340	-620	-640	760	-160	-600	600	20	20	60	160
1214	780	320	-460	-560	620	-80	-640	180	-80	0	80	200
1215	600	320	-260	-460	420	20	-660	-220	-140	-20	80	220
1216	420	320	-100	-380	260	120	-680	-560	-200	-40	60	240
1217	340	320	0	-320	160	160	-720	-780	-260	-60	60	240
1218	240	280	60	-260	100	180	-740	-980	-300	-80	60	240
1219	140	260	120	-200	40	200	-740	-1120	-340	-80	60	240
1220	60	240	160	-140	-40	200	-680	-1240	-360	-100	40	240
1221	0	200	200	-100	-100	200	-620	-1280	-380	-100	40	240
1222	-40	200	240	-80	-140	200	-560	-1220	-360	-100	40	240
1223	-80	180	280	-60	-180	220	-500	-1140	-360	-100	20	220
1224	-120	160	280	-40	-200	220	-420	-1020	-340	-100	20	200
1225	-120	140	260	-20	-200	200	-340	-900	-320	-120	0	180
1226	-120	100	240	0	-180	160	-260	-780	-300	-120	-20	160
1227	-120	60	200	40	-160	120	-200	-660	-260	-120	-20	140
1228	-120	40	160	40	-140	100	-180	-560	-220	-100	-20	120
1229	-120	20	140	40	-120	80	-140	-460	-180	-80	-20	100
1230	-120	20	120	40	-100	60	-80	-360	-140	-60	-20	100
1231	-100	0	80	40	-80	40	-60	-300	-100	-40	-20	100
1232	-100	-20	80	60	-80	20	-40	-260	-60	-40	-20	100
1233	-100	-20	80	60	-80	20	-20	-200	-40	-20	-20	100
1234	-80	-20	60	60	-80	20	0	-160	-20	0	0	100
1235	-60	-20	40	60	-80	20	20	-140	-20	0	20	100
1236	-60	-20	40	60	-60	20	20	-140	-20	0	20	100
1237	-60	-20	60	60	-60	20	20	-120	0	0	0	100
1238	-60	-20	60	60	-60	20	20	-100	0	0	0	80
1239	-60	-20	60	60	-60	20	20	-100	0	0	0	80
1240	-80	-20	60	60	-60	20	20	-100	0	20	20	100
1241	-80	-20	60	60	-60	20	20	-80	0	40	40	100
1242	-80	-20	60	40	-60	20	20	-80	20	40	40	100
1243	-80	-20	60	40	-60	20	20	-80	20	40	40	100
1244	-80	-20	60	40	-60	20	40	-80	20	40	40	100
1245	-60	-20	40	40	-60	20	40	-80	20	40	40	100
1246	-60	-20	60	40	-60	20	40	-60	20	40	40	100
1247	-60	-20	40	40	-40	0	40	-40	20	40	40	100
1248	-60	-20	40	40	-40	0	40	-40	20	40	40	100
1249	-60	-20	40	40	-40	0	40	-40	20	40	40	100
1250	-60	-20	40	40	-40	20	40	-40	40	40	40	100
1251	-60	-20	40	40	-40	20	40	-40	40	40	40	100
1252	-60	-20	40	40	-40	0	40	-20	40	40	20	100
1253	-60	-20	40	40	-40	0	60	-20	40	40	20	100
1254	-60	-20	40	40	-40	0	60	-20	40	40	20	100
1255	-60	-20	40	40	-40	0	60	-20	40	40	20	100
1256	-60	-20	40	40	-40	0	60	-20	40	40	40	100
1257	-40	-20	40	40	-40	0	60	-20	40	20	40	100
1258	-40	-40	20	40	-40	-20	60	-20	40	20	40	100
1259	-60	-40	20	40	-40	0	60	0	40	20	40	100
1260	-60	-40	20	40	-40	0	60	20	40	20	40	100
1261	-60	-40	20	40	-40	0	60	20	40	20	40	100
1262	-60	-20	20	40	-40	0	60	20	40	40	40	100
1263	-60	0	40	40	-40	20	60	20	60	40	40	100
1264	-40	-20	20	40	-40	20	60	20	60	40	40	100
1265	-20	-20	0	20	-20	0	60	40	60	40	40	100
1266	-20	-20	40	20	-40	0	60	40	60	40	40	100
1267	-40	-20	40	20	-40	0	40	40	60	40	40	100
1268	-40	-20	20	20	-40	0	40	40	60	40	40	100
1269	-40	-20	20	20	-40	0	60	40	60	40	40	100
1270	-40	-20	20	20	-40	0	60	60	60	40	40	100
1271	-20	-20	20	20	-20	0	40	60	60	40	40	100
1272	-20	-20	20	20	-20	0	40	60	60	40	40	100
1273	-20	-20	20	20	-20	0	40	80	60	40	40	100
1274	-20	-20	0	20	-20	0	40	80	60	40	40	100
1275	-20	-20	-20	20	0	0	60	80	80	40	40	100
1276	-20	-20	0	20	0	0	60	80	80	40	40	100
1277	-20	-20	0	20	0	0	60	80	80	40	40	100
1278	-20	-20	-20	20	0	-20	60	100	80	40	40	100
1279	-20	-20	-20	20	0	-20	60	120	80	40	40	100
1280	-20	0	0	0	0	0	40	140	80	40	40	100
1281	0	0	-20	0	0	0	20	140	80	40	40	100
1282	0	0	-20	0	0	0	40	140	80	60	40	100
1283	0	0	-20	0	0	0	40	140	80	60	60	120
1284	0	0	-20	0	20	-20	20	140	80	60	60	120
1285	20	0	-20	0	20	-20	20	160	80	60	60	120
1286	20	0	-20	0	20	-20	20	180	80	60	40	120
1287	20	0	-20	0	20	-20	40	180	80	60	40	120
1288	20	-20	-40	0	20	-40	40	180	80	60	40	120
1289	20	-20	-40	0	20	-40	40	180	80	60	40	120
1290	20	-20	-40	0	20	-20	40	200	80	60	40	120
1291	20	-20	-40	0	40	-40	40	200	80	60	40	120
1292	40	-20	-40	-20	60	-40	40	200	80	60	60	120
1293	40	-20	-40	-20	60	-40	40	220	80	60	60	120
1294	40	-20	-60	-20	60	-40	40	240	80	60	60	120
1295	40	-20	-60	-20	60	-40	40	260	80	60	60	120
1296	40	0	-40	-20	60	-20	40	280	100	80	60	120
1297	60	0	-40	-20	60	-20	40	280	120	80	60	120
1298	80	0	-60	-40	60	-40	40	280	120	80	60	120
1299	80	20	-60	-40	60	-40	40	280	120	100	80	120
1300	80	20	-60	-60	80	-40	20	300	120	100	80	120
1301	80	20	-60	-60	80	-20	20	320	120	100	80	120
1302	80	20	-60	-60	80	-20	20	340	120	100	80	120
1303	100	40	-60	-60	80	-20	20	340	100	100	80	120
1304	120	40	-80	-60	100	-20	20	340	80	100	100	140
1305	140	40	-100	-80	120	-40	20	380	80	100	100	140
1306	120	40	-80	-80	100	-40	20	400	80	120	100	140
1307	120	40	-80	-80	100	-40	20	400	80	140	100	140
1308	140	40	-100	-80	120	-40	20	400	80	140	100	140
1309	160	60	-100	-100	120	-20	0	400	80	140	100	140
1310	160	60	-100	-120	120	-20	-20	420	80	140	120	140
1311	160	60	-100	-120	120	-20	0	440	80	140	120	140
1312	160	60	-100	-120	120	-20	20	460	80	140	120	140
1313	160	80	-100	-120	120	-20	20	480	80	140	120	160
1314	180	80	-100	-140	140	-20	20	480	80	140	120	160
1315	200	80	-100	-140	160	-20	0	480	100	140	120	160
1316	200	80	-100	-140	160	-20	0	480	100	140	120	160
1317	180	80	-100	-140	160	-20	20	480	100	140	120	160
1318	200	80	-120	-140	180	-20	0	500	100	140	120	160
1319	180	80	-120	-140	160	-20	0	500	100	140	120	160
1320	180	80	-120	-140	140	-20	0	500	100	140	120	160
1321	200	80	-140	-140	160	-20	0	500	100	140	120	160
1322	200	80	-100	-140	140	-20	0	500	100	140	120	160
1323	200	100	-80	-140	140	0	0	500	100	140	140	160
1324	200	100	-100	-140	140	0	0	500	100	140	160	160
1325	200	100	-100	-140	140	0	0	500	100	160	160	160
1326	200	100	-100	-140	140	0	0	500	100	180	160	180
1327	200	120	-100	-160	140	0	20	500	100	180	160	180
1328	200	120	-100	-160	140	0	20	480	100	180	160	180
1329	200	120	-100	-160	140	0	20	480	100	180	160	180
1330	200	120	-100	-160	140	0	20	480	120	180	160	180
1331	200	120	-100	-160	140	20	20	460	120	180	160	180
1332	200	120	-80	-140	140	20	20	440	120	180	140	180
1333	180	120	-60	-140	120	20	20	420	120	180	140	180
1334	160	100	-60	-140	120	20	20	400	120	160	140	180
1335	140	100	-60	-120	100	20	40	380	120	140	140	180
1336	140	100	-60	-120	100	20	40	360	120	160	140	180
1337	140	100	-40	-120	100	20	40	340	120	160	140	180
1338	140	80	-60	-120	100	20	40	320	100	140	120	180
1339	120	80	-40	-100	80	20	40	300	80	140	120	180
1340	100	80	-20	-80	60	20	40	280	80	140	120	180
1341	100	80	-20	-80	60	20	40	260	80	140	120	180
1342	80	80	0	-80	40	40	40	240	80	140	120	160
1343	80	60	0	-80	40	40	40	200	80	120	100	140
1344	80	40	-40	-60	40	0	40	180	60	100	80	140
1345	40	20	0	-40	20	0	60	160	40	100	80	140
1346	20	20	0	-20	20	0	60	140	20	100	80	140
1347	20	20	0	-20	20	0	60	140	40	80	80	140
1348	20	20	0	-20	20	0	60	140	20	80	80	140
1349	20	20	20	-20	0	20	40	100	0	80	80	140
1350	20	20	0	-20	0	20	40	80	0	80	60	140
1351	0	0	-20	0	0	0	40	80	0	60	40	140
1352	-20	-20	0	20	0	0	40	80	0	60	60	120
1353	-20	0	20	20	0	0	40	40	-20	60	60	120
1354	-20	0	20	20	0	0	40	40	-20	60	60	120
1355	-20	0	20	20	0	0	40	40	-20	60	40	120
1356	-20	0	20	20	0	0	40	40	-20	60	40	120
1357	-20	-20	20	20	0	-20	40	20	-20	40	40	120
1358	-20	-20	0	20	0	-20	40	0	-20	40	40	120
1359	-40	-20	20	20	-20	0	40	-20	-20	40	40	120
1360	-40	-20	20	20	-40	0	40	-20	-20	40	40	120
1361	-40	-20	0	20	-40	0	40	-20	-40	40	20	100
1362	-40	-20	0	40	-40	0	40	-20	-40	40	20	100
1363	-40	-20	20	40	-40	0	40	-20	-40	40	40	100
1364	-40	-20	20	40	-40	0	40	-20	-60	40	40	100
1365	-40	-20	20	40	-40	0	40	-20	-60	40	40	100
1366	-40	-20	40	40	-60	20	40	-40	-40	40	40	100
1367	-40	-20	40	40	-40	0	40	-40	-40	40	40	100
1368	-40	-40	20	40	-40	-20	40	-40	-40	40	20	100
1369	-60	-40	20	40	-40	-20	40	-40	-40	40	20	100
1370	-40	-40	20	40	-40	-20	40	-40	-40	20	20	100
1371	-60	-40	20	40	-40	-20	40	-40	-40	20	20	100
1372	-60	-40	20	40	-40	-20	40	-40	-40	20	20	100
1373	-60	-40	0	40	-40	-20	40	-40	-40	20	20	100
1374	-60	-60	-20	40	-20	-40	40	-40	-40	20	0	100
1375	-60	-60	0	40	-20	-40	40	-40	-60	0	-20	100
1376	-60	-60	20	60	-40	-20	40	-40	-60	-20	-20	80
1377	-60	-60	0	60	-40	-40	40	-40	-60	-20	-20	80
1378	-60	-60	0	60	-40	-40	40	-40	-60	0	0	80
1379	-60	-60	0	60	-40	-40	60	-40	-60	0	20	80
1380	-60	-60	0	60	-20	-40	60	-40	-60	0	20	80
1381	-60	-60	0	60	-40	-20	60	-40	-60	20	20	80
1382	-80	-60	20	60	-60	-20	60	-40	-60	20	20	80
1383	-80	-60	20	60	-40	-20	40	-40	-60	20	20	80
1384	-60	-40	20	60	-40	-20	40	-40	-60	20	20	100
1385	-60	-40	20	60	-40	-20	40	-40	-60	20	20	100
1386	-80	-40	40	60	-60	0	60	-40	-40	20	20	100
1387	-80	-40	20	60	-60	-20	60	-40	-40	20	20	100
1388	-80	-40	20	60	-60	-20	60	-40	-40	20	20	80
1389	-80	-40	40	60	-60	-20	40	-40	-40	20	20	80
1390	-80	-40	40	60	-60	-20	20	-40	-40	20	20	100
1391	-60	-40	20	60	-40	-20	40	-40	-40	20	20	100
1392	-60	-40	20	60	-40	-20	60	-40	-40	20	20	100
1393	-60	-40	20	60	-40	-20	80	-40	-40	20	20	100
1394	-60	-40	20	60	-40	-20	60	-40	-40	20	20	100
1395	-60	-40	20	60	-40	-20	60	-40	-40	0	0	80
1396	-60	-60	20	60	-40	-20	60	-40	-40	-20	0	80
1397	-60	-60	20	60	-40	-20	60	-40	-40	-20	0	80
1398	-60	-60	20	60	-40	-20	60	-40	-40	-20	0	80
1399	-80	-60	20	60	-40	-20	60	-40	-40	-20	0	80
1400	-80	-60	20	60	-60	-20	60	-40	-40	0	0	80
1401	-80	-60	20	60	-60	-20	60	-40	-40	0	0	80
1402	-80	-60	20	60	-60	-20	60	-40	-40	0	0	80
1403	-80	-60	20	60	-60	-20	60	-40	-40	0	0	80
1404	-80	-60	20	60	-60	-20	60	-40	-40	0	0	80
1405	-80	-60	20	60	-40	-20	60	-40	-40	0	0	80
1406	-80	-60	20	60	-40	-20	60	-40	-40	0	0	80
1407	-60	-60	0	60	-40	-40	60	-40	-40	0	0	80
1408	-60	-60	-20	60	-20	-60	60	-40	-40	0	0	80
1409	-60	-60	0	60	-40	-40	60	-40	-40	0	0	80
1410	-60	-60	0	60	-40	-40	60	-40	-40	0	0	80
1411	-60	-60	0	60	-40	-40	60	-40	-40	0	0	80
1412	-60	-60	0	60	-40	-40	60	-20	-40	0	0	80
1413	-60	-60	20	60	-40	-20	60	-20	-40	0	0	80
1414	-60	-60	20	60	-40	-20	60	-20	-40	0	0	80
1415	-80	-60	20	60	-40	-20	60	-20	-40	0	0	80
1416	-80	-60	20	60	-40	-20	60	-40	-40	20	0	80
1417	-80	-60	20	60	-40	-20	60	-40	-40	20	0	80
1418	-80	-60	20	60	-40	-20	60	-40	-40	20	0	80
1419	-80	-60	20	60	-40	-20	60	-40	-40	20	0	80
1420	-80	-60	20	80	-40	-20	60	-40	-40	20	0	80
1421	-80	-60	0	80	-40	-40	60	-40	-40	20	0	80
1422	-60	-60	-20	80	-40	-40	60	-40	-40	20	0	80
1423	-60	-60	-20	80	-40	-40	60	-40	-40	20	0	80
1424	-80	-60	0	80	-40	-40	60	-40	-40	20	0	80
1425	-80	-60	0	80	-40	-40	60	-40	-40	0	0	80
1426	-80	-60	20	80	-60	-20	60	-40	-40	20	20	80
1427	-80	-60	20	60	-60	-20	60	-40	-40	20	20	80
1428	-80	-60	20	60	-60	-20	60	-40	-40	20	20	80
1429	-80	-60	20	60	-60	-20	60	-40	-40	20	20	80
1430	-60	-60	20	60	-40	-20	60	-40	-40	20	20	80
1431	-60	-60	0	60	-40	-20	60	-40	-40	20	20	80
1432	-80	-60	20	60	-60	-20	60	-40	-40	20	20	80
1433	-80	-60	20	60	-60	-20	60	-40	-40	20	20	80
1434	-80	-80	0	60	-60	-40	60	-60	-40	20	20	80
1435	-80	-80	0	60	-40	-40	60	-60	-40	20	0	80
1436	-60	-60	0	60	-20	-40	60	-60	-40	20	0	80
1437	-60	-60	0	60	-20	-40	60	-60	-40	0	0	80
1438	-60	-60	0	60	-20	-40	60	-60	-40	0	0	80
1439	-60	-60	0	60	-40	-40	60	-60	-40	0	0	80
1440	-80	-60	0	60	-40	-40	60	-60	-40	0	0	80
1441	-60	-60	0	60	-40	-40	60	-60	-20	0	0	80
1442	-40	-60	0	40	-40	-20	60	-60	-20	20	0	80
1443	-60	-60	0	40	-40	-20	60	-60	-40	20	0	80
1444	-80	-80	0	60	-40	-40	60	-60	-40	20	0	80
1445	-80	-80	0	80	-40	-40	60	-60	-40	0	0	80
1446	-80	-60	0	80	-40	-40	60	-60	-40	0	0	80
1447	-80	-60	0	80	-40	-40	60	-60	-40	0	0	80
1448	-80	-60	0	80	-40	-40	60	-40	-40	0	0	80
1449	-80	-60	0	60	-40	-40	60	-60	-20	0	0	80
1450	-60	-40	0	40	-40	-40	60	-40	-20	0	0	80
1451	-40	-40	0	40	-40	-40	60	-20	-20	20	20	80
1452	-40	-40	0	40	-40	-20	80	-20	-20	20	20	100
1453	-40	-40	20	40	-40	0	100	-20	0	20	20	120
1454	-40	-40	0	20	-20	-20	80	-20	0	40	20	100
1455	-40	-40	0	20	0	-20	60	-20	20	60	20	100
1456	-40	-40	20	20	-20	-20	60	-20	20	60	40	100
1457	-40	-40	20	20	-20	-20	80	-20	0	40	40	100
1458	-40	-40	0	20	-20	-20	80	-20	0	40	40	100
1459	-40	-40	0	40	-20	-20	80	-20	0	40	40	100
1460	-40	-40	0	40	-20	-20	80	20	20	40	40	100
1461	-40	-40	-20	40	-20	-40	80	20	20	40	40	100
1462	-40	-40	-20	40	-20	-40	80	20	20	20	40	100
1463	-40	-40	-20	40	-20	-40	60	20	20	20	40	100
1464	-40	-40	-20	40	0	-40	60	20	20	40	40	100
1465	-40	-40	-20	40	0	-40	60	20	20	60	40	100
1466	-40	-40	0	40	-20	-20	60	20	40	60	40	100
1467	-20	-40	0	20	0	-20	40	20	40	60	40	120
1468	-20	-20	0	0	-20	0	40	20	40	80	60	120
1469	-20	20	20	-20	-20	20	40	20	60	100	80	120
1470	0	40	20	-20	-20	40	40	20	60	100	100	140
1471	0	40	20	-20	-20	40	40	20	60	100	100	140
1472	20	40	20	-20	0	40	40	40	60	100	100	140
1473	40	40	0	-20	20	20	40	40	40	80	80	140
1474	20	0	-20	-20	20	0	40	20	20	60	60	120
1475	0	-40	-40	0	20	-20	40	20	20	60	40	120
1476	0	-40	-40	20	20	-40	40	20	20	60	40	120
1477	0	-40	-40	20	20	-40	40	20	20	60	40	120
1478	0	-40	-60	20	40	-40	40	20	20	40	40	120
1479	0	-40	-60	20	40	-60	40	0	0	20	40	100
1480	0	-60	-60	40	40	-80	40	-20	-20	0	0	80
1481	-20	-100	-80	60	40	-100	40	-40	-20	-20	-20	80
1482	-20	-100	-80	60	40	-80	40	-60	-20	-20	-20	80
1483	-20	-80	-80	60	40	-60	40	-60	-40	-20	-20	80
1484	-20	-80	-80	60	40	-80	40	-60	-40	-20	-20	80
1485	-20	-80	-80	60	40	-80	40	-60	-40	-20	-20	80
1486	-40	-80	-40	60	20	-60	40	-60	-40	0	-20	80
1487	-40	-80	-40	60	0	-60	20	-80	-40	0	-20	80
1488	-40	-80	-40	60	0	-60	20	-80	-40	0	-20	80
1489	-40	-80	-40	60	0	-60	20	-80	-40	0	0	100
1490	-40	-80	-40	60	0	-60	20	-80	-40	0	20	100
1491	-60	-80	-40	60	-20	-60	20	-100	-40	0	20	100
1492	-80	-80	-20	60	-40	-60	20	-100	-40	0	20	100
1493	-80	-80	0	80	-40	-40	20	-80	-40	0	20	100
1494	-80	-80	-20	80	-40	-40	20	-80	-40	0	20	100
1495	-80	-80	-20	80	-20	-40	20	-80	-40	-20	0	100
1496	-80	-80	-20	80	-20	-40	20	-80	-40	-20	-20	100
1497	-80	-80	-20	80	-20	-40	20	-80	-40	-20	-20	100
1498	-80	-80	-20	80	-20	-40	20	-80	-40	-20	-20	100
1499	-80	-80	0	80	-40	-40	20	-80	-40	-20	-20	100
1500	-80	-80	0	80	-40	-40	20	-100	-40	-20	-20	100
1501	-80	-80	0	80	-40	-40	20	-100	-40	-40	-20	80
1502	-80	-80	0	80	-40	-40	20	-100	-40	-40	-20	60
1503	-80	-80	0	80	-40	-40	20	-120	-60	-40	-20	80
1504	-80	-80	0	80	-40	-40	20	-140	-60	-40	-20	80
1505	-80	-60	20	60	-60	-20	20	-120	-60	-20	-20	80
1506	-80	-40	40	60	-60	0	20	-140	-60	-20	-20	80
1507	-60	-40	40	60	-60	0	20	-140	-60	-20	-20	80
1508	-60	-40	40	60	-60	0	20	-140	-60	-20	-20	80
1509	-60	-40	40	60	-60	0	20	-140	-40	-20	0	80
1510	-60	-40	40	60	-60	0	0	-140	-60	-20	0	80
1511	-60	-40	40	40	-60	0	0	-140	-60	-20	0	80
1512	-60	-20	40	40	-60	0	20	-140	-60	-20	0	80
1513	-60	-20	40	40	-60	0	20	-140	-60	-20	0	80
1514	-60	-20	40	40	-60	0	20	-140	-60	0	0	80
1515	-60	-20	40	40	-60	0	0	-140	-60	0	0	80
1516	-60	-20	40	40	-40	0	0	-120	-60	0	0	80
1517	-60	-20	40	40	-40	0	0	-140	-60	0	0	80
1518	-40	0	40	20	-40	20	20	-140	-60	0	0	80
1519	-40	20	40	20	-40	40	20	-140	-60	0	0	80
1520	-40	0	40	20	-40	20	20	-140	-60	0	0	80
1521	-40	-20	40	20	-40	0	20	-140	-60	0	0	80
1522	-40	-40	20	20	-40	0	20	-140	-60	0	0	80
1523	-40	-40	20	40	-40	-20	40	-120	-60	-20	-20	80
1524	-60	-40	20	60	-40	-40	60	-80	-60	-20	-20	80
1525	-80	-40	20	80	-40	-20	80	-80	-40	-20	-20	80
1526	-80	-40	20	80	-60	-20	100	-60	-20	0	-20	60
1527	-80	-80	0	80	-40	-40	120	-40	-20	-20	-40	40
1528	-80	-100	-20	80	-20	-60	120	-20	-20	-20	-60	20
1529	-80	-120	-40	100	-20	-80	120	-20	-20	0	-60	20
1530	-100	-140	-40	120	-40	-100	140	20	20	20	-40	20
1531	-100	-140	-40	120	-40	-100	160	120	80	80	0	40
1532	-60	-120	-60	80	-20	-100	180	220	140	140	40	60
1533	-20	-80	-80	40	20	-80	180	360	200	200	100	100
1534	80	-40	-120	-20	100	-80	160	500	260	260	160	140
1535	200	40	-180	-120	180	-80	80	560	300	300	200	180
1536	320	100	-260	-200	300	-80	-20	600	260	300	220	200
1537	480	120	-380	-280	440	-140	-140	640	220	280	220	220
1538	640	160	-500	-400	580	-180	-260	740	200	260	240	240
1539	800	220	-560	-520	680	-160	-360	860	200	300	260	260
1540	940	280	-620	-620	780	-160	-460	940	220	300	280	280
1541	1060	340	-720	-700	880	-180	-520	1020	220	280	280	280
1542	1100	340	-780	-720	940	-220	-520	1020	180	200	220	240
1543	1100	320	-780	-720	940	-240	-520	960	140	140	160	220
1544	1080	280	-780	-680	940	-260	-500	860	80	80	100	180
1545	1060	260	-800	-640	920	-280	-460	760	20	20	60	160
1546	960	280	-700	-600	840	-220	-460	520	-20	20	60	160
1547	800	280	-540	-520	660	-140	-460	180	-60	20	80	200
1548	600	280	-340	-440	480	-40	-480	-180	-120	20	80	240
1549	420	280	-140	-360	300	60	-480	-480	-180	20	80	260
1550	300	300	20	-300	140	160	-500	-680	-200	20	80	280
1551	180	340	160	-260	0	260	-520	-860	-200	60	120	300
1552	120	360	260	-240	-80	300	-520	-1000	-200	100	140	320
1553	60	360	320	-220	-140	340	-520	-1120	-240	80	140	320
1554	0	360	360	-180	-200	360	-480	-1180	-260	60	140	320
1555	-80	340	400	-140	-240	380	-440	-1160	-260	40	120	300
1556	-140	320	440	-100	-280	380	-380	-1100	-260	40	100	280
1557	-180	280	460	-40	-320	360	-320	-1040	-280	0	80	260
1558	-200	240	420	0	-320	340	-280	-980	-300	-40	40	220
1559	-220	200	400	20	-300	300	-240	-900	-320	-60	0	180
1560	-200	160	360	20	-280	260	-200	-780	-300	-80	-20	140
1561	-180	120	300	20	-240	220	-180	-660	-280	-100	-40	120
1562	-180	80	260	60	-240	180	-140	-580	-260	-100	-60	100
1563	-180	60	240	60	-220	140	-100	-460	-240	-80	-60	80
1564	-140	40	180	40	-160	100	-80	-380	-200	-60	-40	80
1565	-120	60	160	40	-140	100	-60	-320	-160	-40	-40	80
1566	-120	60	160	40	-140	100	-40	-260	-140	-20	-40	80
1567	-120	40	160	40	-140	100	-20	-240	-120	-20	-40	80
1568	-100	20	140	40	-120	80	-20	-220	-100	-20	-40	80
1569	-100	20	120	40	-120	80	0	-180	-100	0	-20	80
1570	-100	20	120	40	-120	80	20	-160	-100	20	0	80
1571	-100	40	120	40	-120	80	40	-140	-80	20	0	80
1572	-100	60	140	40	-120	80	40	-120	-80	20	0	80
1573	-100	60	140	20	-120	80	40	-100	-80	20	0	80
1574	-100	60	140	20	-120	80	20	-100	-80	20	-20	80
1575	-100	60	140	20	-120	80	20	-100	-80	20	-20	80
1576	-100	60	160	20	-120	100	20	-100	-80	20	-20	80
1577	-100	60	140	20	-120	100	20	-80	-60	20	-20	80
1578	-100	60	140	20	-120	100	20	-80	-60	20	-20	80
1579	-100	60	160	20	-120	100	20	-80	-60	20	-20	80
1580	-100	60	160	20	-120	100	20	-80	-60	20	-20	80
1581	-100	60	160	20	-120	100	20	-80	-60	20	-20	60
1582	-100	80	160	20	-120	120	20	-80	-60	20	-20	60
1583	-100	80	180	20	-140	120	20	-80	-60	0	-20	60
1584	-100	80	200	20	-160	120	20	-60	-60	0	-20	60
1585	-100	100	200	20	-140	140	20	-40	-60	0	-40	60
1586	-100	120	200	0	-160	160	20	-60	-80	-20	-60	60
1587	-100	120	200	-20	-160	180	20	-80	-100	-40	-60	40
1588	-100	140	220	-40	-160	180	0	-60	-80	-40	-60	40
1589	-80	160	240	-60	-160	200	-20	-60	-60	-40	-60	40
1590	-80	180	260	-60	-180	220	0	-60	-80	-20	-60	40
1591	-80	200	280	-60	-180	240	-20	-60	-80	-20	-60	40
1592	-80	220	280	-60	-180	240	-20	-60	-100	-40	-60	40
1593	-80	220	280	-60	-180	240	-20	-60	-100	-40	-60	20
1594	-80	200	260	-60	-180	220	-20	-60	-100	-40	-60	20
1595	-80	180	240	-60	-160	220	-20	-60	-100	-40	-60	20
1596	-80	180	240	-60	-160	220	-20	-60	-100	-40	-60	20
1597	-80	180	240	-60	-160	200	-20	-40	-80	-40	-60	40
1598	-60	140	180	-60	-120	180	0	-20	-80	-20	-60	60
1599	-40	120	160	-60	-100	140	0	0	-80	-20	-40	60
1600	-40	100	140	-40	-100	120	0	20	-60	-20	-40	60
1601	-40	80	120	-20	-80	100	0	20	-40	0	-40	60
1602	-40	80	120	-20	-80	80	20	20	-40	20	-40	80
1603	-40	80	100	-20	-80	80	40	20	-40	20	-40	80
1604	-40	60	80	-20	-60	60	40	20	-40	20	-40	80
1605	-20	40	60	-20	-40	40	20	40	-40	20	-40	80
1606	-20	40	80	-20	-60	60	20	60	-40	20	-20	80
1607	-20	60	80	-20	-60	80	20	60	-40	20	-20	80
1608	-20	80	80	-20	-60	80	20	60	-40	20	-20	80
1609	-20	80	80	-20	-60	80	20	60	-40	20	-20	80
1610	-20	80	100	-20	-60	80	20	60	-40	20	-20	80
1611	-20	80	100	-20	-40	80	20	60	-40	20	-20	80
1612	-20	80	120	-20	-60	100	20	60	-40	20	-20	80
1613	-20	80	120	-20	-80	100	20	60	-40	20	-20	80
1614	-20	80	120	-20	-80	100	0	60	-40	20	-20	80
1615	-20	100	120	-40	-60	100	-20	80	-40	20	-20	80
1616	-20	120	120	-40	-60	100	0	100	-40	20	-20	80
1617	-20	100	100	-40	-60	100	-20	100	-40	20	-20	80
1618	-20	80	80	-40	-60	80	-20	100	-40	20	-20	80
1619	-20	80	100	-40	-60	80	-20	100	-40	20	-20	80
1620	0	80	100	-40	-40	80	-20	120	-40	40	-20	80
1621	20	80	80	-40	-20	80	0	140	-20	40	-20	80
1622	40	60	60	-40	0	60	0	160	-20	20	-20	80
1623	40	40	40	-40	0	40	0	180	-20	20	-20	80
1624	40	20	20	-40	0	20	0	180	-20	20	-20	80
1625	40	20	-20	-40	20	0	0	180	0	20	-20	100
1626	40	20	-40	-40	40	-20	0	200	20	20	0	120
1627	40	-40	-60	0	60	-60	0	220	20	40	20	120
1628	40	-80	-100	20	80	-100	20	240	20	60	20	120
1629	40	-100	-140	40	100	-140	40	260	20	80	40	140
1630	60	-120	-180	20	120	-140	60	280	40	100	60	160
1631	80	-140	-220	20	140	-180	60	300	60	120	80	180
1632	80	-140	-220	40	160	-180	60	320	80	120	100	180
1633	80	-160	-220	40	160	-180	60	320	80	120	100	180
1634	80	-180	-240	40	160	-200	60	340	80	120	100	180
1635	80	-180	-260	40	160	-220	60	360	80	120	100	180
1636	80	-180	-260	40	160	-220	60	380	80	120	100	180
1637	100	-180	-260	40	180	-220	60	380	80	120	100	180
1638	120	-160	-260	20	200	-220	60	400	100	120	100	180
1639	120	-140	-260	20	180	-200	60	420	100	140	100	180
1640	120	-140	-280	20	200	-220	60	420	100	140	120	180
1641	120	-140	-280	20	200	-220	60	420	100	140	120	200
1642	120	-140	-260	0	200	-200	60	440	120	160	120	200
1643	120	-120	-240	0	180	-180	60	440	140	160	120	200
1644	140	-120	-260	-20	220	-200	60	440	140	160	120	200
1645	160	-120	-280	-40	220	-200	60	460	140	160	120	200
1646	160	-100	-260	-40	220	-180	60	480	140	160	140	200
1647	160	-120	-260	-40	220	-200	60	480	140	160	140	220
1648	160	-120	-260	-40	220	-200	60	500	140	160	140	220
1649	160	-120	-260	-40	220	-200	60	500	140	160	140	220
1650	160	-120	-260	-20	220	-200	60	500	140	160	140	220
1651	180	-120	-280	-20	220	-200	60	520	160	160	140	220
1652	180	-100	-280	-40	220	-200	60	520	160	160	140	220
1653	180	-80	-280	-60	220	-200	60	520	160	160	140	220
1654	180	-80	-280	-60	220	-200	60	520	160	160	140	220
1655	180	-80	-280	-60	220	-180	60	520	180	160	140	220
1656	160	-80	-240	-40	220	-160	60	500	180	160	140	220
1657	180	-80	-260	-40	220	-160	60	500	180	160	160	220
1658	180	-80	-260	-60	220	-160	60	500	180	160	180	220
1659	180	-80	-240	-60	200	-160	60	500	180	180	160	220
1660	180	-80	-240	-60	220	-160	60	500	180	180	160	240
1661	180	-80	-240	-60	220	-160	60	500	180	180	160	240
1662	180	-60	-240	-60	200	-160	60	500	180	180	160	240
1663	180	-40	-240	-60	200	-160	60	480	180	180	160	240
1664	180	-60	-240	-60	200	-160	60	460	200	180	180	240
1665	180	-60	-220	-60	200	-140	60	460	200	180	180	240
1666	160	-60	-200	-60	180	-140	60	440	200	180	160	240
1667	160	-60	-200	-60	180	-140	80	420	200	180	160	240
1668	160	-60	-200	-60	180	-140	100	400	200	180	160	240
1669	140	-60	-180	-40	160	-120	100	380	200	180	160	240
1670	120	-60	-180	-20	140	-120	80	360	180	180	160	240
1671	100	-60	-180	-20	140	-120	80	340	180	180	160	240
1672	100	-60	-160	-20	140	-100	80	320	180	180	160	240
1673	80	-60	-140	-20	120	-80	80	300	180	160	160	240
1674	80	-60	-140	-20	100	-100	100	300	180	160	160	240
1675	80	-60	-140	-20	100	-100	100	280	180	160	160	240
1676	80	-60	-140	-20	100	-100	100	260	180	160	160	240
1677	80	-60	-120	-20	100	-100	100	240	160	140	140	220
1678	60	-80	-120	0	100	-120	100	220	140	140	120	200
1679	40	-100	-120	20	80	-120	120	200	140	140	120	200
1680	20	-100	-120	40	80	-120	120	180	140	140	120	200
1681	0	-100	-120	60	60	-120	120	160	140	140	120	200
1682	0	-100	-120	60	60	-120	120	160	140	120	120	200
1683	0	-120	-120	60	60	-120	120	160	120	100	100	200
1684	-20	-140	-120	80	60	-120	120	140	100	100	80	180
1685	-40	-140	-120	100	60	-120	120	120	100	100	80	180
1686	-40	-140	-100	100	40	-120	120	100	100	100	80	180
1687	-20	-140	-100	80	40	-120	120	100	100	100	80	180
1688	-20	-140	-100	80	40	-120	120	100	100	100	80	180
1689	-40	-140	-100	80	40	-120	120	80	80	100	80	180
1690	-60	-140	-100	80	20	-120	120	60	60	80	80	180
1691	-60	-140	-100	80	20	-120	120	60	60	80	80	180
1692	-60	-140	-100	80	20	-120	120	60	60	80	60	180
1693	-60	-140	-100	80	20	-120	120	60	60	80	60	180
1694	-60	-140	-100	100	20	-120	120	60	60	80	60	160
1695	-60	-140	-100	120	20	-120	120	60	60	80	60	160
1696	-60	-140	-80	100	20	-120	120	40	60	80	60	160
1697	-60	-140	-80	100	20	-120	120	20	60	60	60	160
1698	-60	-140	-80	100	20	-120	120	20	60	60	40	160
1699	-60	-140	-80	100	20	-120	120	20	60	60	40	160
1700	-60	-140	-80	100	20	-120	120	20	60	60	40	160
1701	-60	-140	-80	100	20	-120	120	20	60	60	40	160
1702	-60	-140	-80	100	20	-120	120	20	60	60	40	160
1703	-80	-140	-60	100	0	-100	120	20	40	60	40	160
1704	-80	-140	-60	100	0	-80	120	20	40	60	40	160
1705	-60	-140	-60	100	0	-100	120	20	40	60	40	160
1706	-60	-120	-60	100	-20	-80	100	20	40	60	40	160
1707	-60	-100	-60	80	0	-80	100	20	40	60	40	160
1708	-60	-100	-60	80	0	-80	100	20	40	60	40	140
1709	-60	-100	-40	80	-20	-80	100	20	40	60	40	140
1710	-60	-120	-60	80	-20	-80	100	20	40	60	20	140
1711	-60	-120	-60	80	-20	-80	100	20	40	60	20	140
1712	-60	-100	-60	80	-20	-80	100	20	40	60	20	140
1713	-60	-120	-60	80	-20	-80	100	20	40	60	20	140
1714	-60	-140	-60	100	-20	-100	100	20	40	60	40	140
1715	-60	-140	-80	100	0	-120	100	0	40	60	40	140
1716	-60	-140	-80	100	20	-120	100	20	40	60	40	140
1717	-60	-140	-80	100	20	-120	100	20	60	60	40	160
1718	-60	-140	-100	100	20	-120	100	20	60	60	40	160
1719	-80	-160	-100	120	20	-120	100	20	60	60	40	160
1720	-80	-160	-100	120	20	-120	100	20	60	60	40	160
1721	-60	-160	-100	100	20	-120	100	20	60	60	60	160
1722	-60	-160	-100	100	20	-120	120	40	60	60	60	160
1723	-60	-160	-100	100	20	-120	120	40	60	80	60	160
1724	-60	-160	-100	100	20	-140	120	40	60	80	60	160
1725	-60	-160	-100	100	20	-120	120	40	60	80	60	160
1726	-60	-160	-100	100	20	-140	120	40	60	80	60	160
1727	-60	-160	-100	100	20	-140	120	40	60	80	60	160
1728	-60	-140	-80	100	0	-120	120	40	60	80	60	160
1729	-60	-140	-100	100	20	-120	120	40	60	80	60	160
1730	-60	-140	-120	100	40	-120	100	40	60	80	60	160
1731	-40	-140	-120	100	40	-120	100	40	60	80	60	160
1732	-40	-140	-120	100	40	-120	100	40	60	100	60	160
1733	-60	-140	-100	100	20	-120	100	40	60	100	60	160
1734	-40	-140	-100	100	20	-120	100	40	60	80	60	160
1735	-40	-140	-100	100	20	-120	120	40	60	80	60	160
1736	-40	-140	-80	100	20	-120	100	40	60	80	60	160
1737	-40	-140	-80	100	20	-120	100	40	60	80	60	160
1738	-60	-140	-80	100	20	-120	100	40	60	80	60	160
1739	-60	-140	-80	100	20	-100	100	40	60	80	60	160
1740	-60	-140	-80	100	20	-100	120	40	60	80	60	160
1741	-60	-140	-80	100	20	-100	100	40	60	80	60	160
1742	-60	-140	-60	100	0	-100	120	40	60	80	40	160
1743	-80	-120	-40	100	-20	-100	120	40	60	80	40	140
1744	-60	-120	-60	100	-20	-100	120	40	40	80	40	140
1745	-40	-120	-80	80	0	-100	120	40	40	80	40	140
1746	-60	-120	-60	80	0	-100	120	20	40	60	40	140
1747	-60	-120	-60	80	0	-100	120	0	40	60	40	140
1748	-60	-120	-60	80	0	-100	120	20	40	60	40	140
1749	-60	-120	-60	100	0	-80	100	20	40	60	40	140
1750	-60	-120	-60	100	0	-80	100	20	40	60	40	140
1751	-60	-120	-60	100	0	-80	100	20	40	60	40	140
1752	-60	-120	-40	100	-20	-80	100	20	40	60	40	140
1753	-60	-120	-40	100	-20	-80	100	20	40	60	40	140
1754	-60	-120	-40	100	-20	-80	100	0	40	60	40	140
1755	-60	-100	-40	80	-20	-80	100	0	40	60	40	140
1756	-60	-80	-20	60	-20	-60	100	0	40	60	40	140
1757	-60	-80	-40	60	-20	-60	100	0	40	60	40	140
1758	-60	-80	-40	60	-20	-60	100	0	40	60	40	140
1759	-60	-80	-20	60	-20	-40	80	0	40	60	40	140
1760	-60	-80	-20	60	-20	-40	80	0	40	60	40	140
1761	-60	-80	-20	60	-20	-40	80	0	20	60	40	140
1762	-60	-80	-20	60	-20	-40	80	0	20	60	40	140
1763	-60	-80	-20	60	-20	-40	80	0	20	60	20	140
1764	-60	-80	-20	60	-20	-60	100	0	20	60	20	140
1765	-60	-80	-20	60	-20	-60	100	0	20	60	20	140
1766	-60	-80	-20	60	-20	-60	100	-20	20	60	20	140
1767	-60	-80	-20	80	-20	-60	100	-20	20	60	20	120
1768	-60	-80	-20	80	-20	-60	100	-20	20	60	20	120
1769	-80	-80	0	80	-40	-40	100	-20	20	60	20	120
1770	-80	-100	-20	80	-40	-40	100	-20	20	60	20	120
1771	-80	-100	-20	80	-40	-40	80	-20	20	60	20	120
1772	-80	-80	-20	80	-40	-40	60	-20	20	60	20	120
1773	-80	-80	0	80	-40	-40	80	-20	20	60	20	120
1774	-80	-80	-20	80	-40	-40	100	-20	20	60	20	120
1775	-80	-60	20	80	-40	-40	100	-20	20	60	20	120
1776	-80	-60	20	80	-40	-20	100	-20	20	60	20	120
1777	-60	-60	0	60	-40	-20	100	-20	20	60	20	120
1778	-60	-60	0	60	-40	-20	100	-20	20	60	20	120
1779	-60	-60	20	60	-40	-20	100	-20	20	60	20	120
1780	-60	-20	40	40	-40	0	100	0	40	80	20	140
1781	-60	-20	20	40	-40	0	100	20	40	80	40	140
1782	-60	-20	20	40	-40	0	100	20	40	80	40	140
1783	-60	-20	60	40	-60	20	100	20	40	80	40	140
1784	-60	-20	40	40	-40	20	100	20	40	80	40	140
1785	-60	-20	20	40	-40	20	100	20	40	80	40	140
1786	-60	-20	40	40	-40	20	100	20	40	80	40	140
1787	-60	-20	40	40	-40	20	100	20	60	80	40	140
1788	-60	-20	40	40	-40	20	100	40	80	80	40	140
1789	-60	-20	60	40	-60	20	100	40	80	80	40	140
1790	-60	-20	40	40	-60	20	100	40	60	80	40	140
1791	-40	-20	20	40	-40	0	100	40	60	80	40	140
1792	-40	-20	20	40	-40	0	100	40	60	80	40	140
1793	-60	-20	40	40	-40	20	100	40	60	80	40	140
1794	-60	-20	40	40	-40	20	100	40	60	80	40	140
1795	-40	0	40	40	-40	20	100	40	80	100	40	140
1796	-20	20	40	20	-40	20	100	60	80	100	40	140
1797	-20	20	40	0	-40	20	100	60	80	100	40	140
1798	-20	20	40	0	-40	20	100	60	80	100	60	140
1799	-20	40	60	0	-40	40	100	60	80	120	60	160
1800	-20	40	40	0	-40	40	80	60	80	120	60	160
1801	-20	40	40	0	-40	40	80	60	100	120	60	160
1802	-20	40	40	-20	-40	40	80	60	100	120	60	160
1803	-20	20	40	-20	-20	40	80	40	60	100	60	160
1804	-20	0	20	0	0	0	80	40	60	80	40	140
1805	-20	0	20	20	-20	0	80	40	60	80	40	140
1806	-20	20	40	20	-40	20	80	40	60	100	60	140
1807	-20	20	20	20	-20	20	80	40	60	100	60	140
1808	-20	0	0	20	0	0	80	40	60	80	40	140
1809	-20	-20	0	20	-20	-20	60	-20	40	60	20	140
1810	-40	-40	0	40	-20	-20	40	-40	20	60	0	120
1811	-60	-40	0	40	-20	-20	40	-40	0	60	0	100
1812	-40	-40	20	40	-20	-20	40	-40	20	60	20	120
1813	-40	-40	20	40	-20	-20	40	-40	0	60	20	120
1814	-60	-40	20	40	-40	-20	40	-40	-20	40	20	120
1815	-60	-40	20	40	-40	-20	40	-40	-20	40	20	120
1816	-60	-40	20	40	-40	0	40	-60	-20	40	20	120
1817	-60	-40	20	40	-40	0	40	-60	-20	40	20	120
1818	-60	-40	20	40	-40	0	40	-60	-20	40	20	120
1819	-80	-40	40	60	-60	0	60	-60	-20	40	20	120
1820	-80	-40	40	80	-60	0	60	-60	-20	40	20	120
1821	-80	-40	40	80	-60	-20	60	-60	0	40	0	120
1822	-100	-60	40	80	-60	-20	60	-40	20	40	0	100
1823	-100	-60	40	80	-80	-20	60	-60	20	40	0	100
1824	-100	-60	40	80	-60	-20	40	-60	0	40	0	100
1825	-100	-60	40	80	-60	-20	40	-60	-20	40	0	100
1826	-100	-60	40	80	-60	-20	60	-60	0	40	0	100
1827	-100	-60	20	80	-60	-20	80	-60	0	40	0	100
1828	-100	-80	20	80	-60	-20	60	-60	-20	40	0	100
1829	-100	-80	40	80	-60	-20	60	-80	-20	40	0	100
1830	-100	-80	20	80	-60	-20	60	-80	-20	40	0	100
1831	-100	-80	20	80	-60	-20	60	-80	-20	40	0	100
1832	-100	-80	20	80	-60	-40	60	-80	-20	40	0	80
1833	-100	-60	20	80	-60	-40	60	-80	-20	40	0	80
1834	-80	-60	20	80	-60	-40	60	-80	-20	40	0	80
1835	-80	-60	20	80	-60	-20	60	-80	-20	40	0	80
1836	-100	-60	40	80	-60	-20	60	-80	-20	40	0	80
1837	-100	-60	40	80	-60	-20	60	-80	-20	40	0	80
1838	-100	-60	40	80	-60	-20	60	-80	-20	40	0	80
1839	-100	-60	40	80	-60	-20	60	-80	-20	40	0	80
1840	-100	-60	40	80	-60	-20	60	-80	-20	40	0	80
1841	-100	-60	40	80	-60	-20	60	-80	0	40	0	80
1842	-100	-60	40	80	-60	-20	60	-80	0	40	0	100
1843	-100	-60	40	80	-80	-20	60	-80	0	40	0	100
1844	-80	-60	40	80	-60	-20	60	-80	-20	40	0	100
1845	-80	-60	40	80	-80	-20	60	-80	-20	40	0	100
1846	-100	-60	40	80	-80	0	60	-80	-20	40	0	100
1847	-100	-60	40	80	-80	0	60	-80	-20	40	0	100
1848	-100	-60	40	80	-80	0	60	-80	-20	40	0	100
1849	-100	-60	40	80	-80	0	60	-80	-20	20	0	100
1850	-100	-60	60	80	-80	0	60	-80	-20	20	0	100
1851	-120	-60	60	80	-80	0	60	-80	-20	20	0	100
1852	-140	-60	60	100	-100	0	80	-60	-20	20	-20	80
1853	-160	-60	60	120	-120	0	120	-40	0	20	-40	80
1854	-160	-80	60	120	-120	-20	140	-20	20	20	-40	80
1855	-160	-100	60	120	-120	-20	140	0	20	20	-40	80
1856	-160	-100	60	140	-120	-20	160	0	20	20	-40	60
1857	-160	-120	40	140	-100	-40	180	20	20	20	-40	40
1858	-160	-140	40	160	-100	-60	180	20	40	20	-40	20
1859	-180	-140	40	160	-120	-60	180	60	60	20	-60	40
1860	-180	-120	60	140	-120	-40	200	160	120	60	-40	60
1861	-160	-100	60	120	-120	-20	240	280	200	120	20	80
1862	-100	-40	60	60	-80	0	240	420	280	200	80	100
1863	-20	20	20	0	-20	20	220	580	360	260	140	140
1864	100	60	-60	-80	80	0	140	680	360	280	180	180
1865	240	100	-140	-180	200	-20	40	740	340	300	220	220
1866	400	160	-240	-280	320	-40	-80	820	320	300	240	220
1867	560	220	-340	-380	440	-60	-200	940	320	320	260	240
1868	700	280	-420	-480	560	-80	-320	1080	360	340	300	280
1869	820	340	-460	-580	640	-60	-400	1160	380	360	340	320
1870	940	400	-540	-660	740	-60	-480	1240	360	360	340	320
1871	1000	380	-600	-700	800	-100	-500	1280	320	300	280	300
1872	1000	360	-640	-700	820	-140	-520	1200	240	220	220	260
1873	1000	340	-660	-680	840	-160	-500	1120	180	140	160	220
1874	980	320	-680	-660	840	-180	-480	1020	120	80	100	180
1875	900	320	-580	-620	740	-140	-500	740	60	40	80	180
1876	740	340	-400	-540	560	-40	-540	360	-20	20	80	220
1877	560	340	-220	-460	380	60	-560	-60	-100	0	80	240
1878	400	320	-60	-360	220	140	-560	-400	-180	-20	80	260
1879	280	340	80	-300	100	220	-600	-660	-200	-20	80	260
1880	200	340	160	-280	20	260	-620	-820	-220	0	80	280
1881	120	320	220	-240	-60	280	-640	-960	-240	0	80	300
1882	40	300	260	-180	-120	280	-620	-1100	-280	-20	80	280
1883	-40	280	300	-140	-180	280	-580	-1200	-320	-20	80	280
1884	-80	260	320	-100	-200	280	-540	-1160	-320	-20	80	280
1885	-120	260	360	-60	-240	300	-460	-1080	-320	-20	80	260
1886	-160	220	380	-20	-280	300	-380	-1000	-320	-40	60	240
1887	-180	180	360	0	-260	260	-320	-920	-320	-60	40	220
1888	-180	140	320	20	-240	220	-260	-840	-320	-80	20	180
1889	-180	100	280	40	-240	200	-200	-740	-300	-80	-20	140
1890	-180	40	240	60	-220	140	-160	-620	-280	-80	-40	120
1891	-180	0	200	80	-200	100	-120	-520	-260	-80	-40	100
1892	-180	-20	160	100	-180	80	-80	-420	-220	-60	-40	100
1893	-160	-20	120	80	-140	60	-60	-340	-180	-40	-40	100
1894	-160	-20	120	80	-140	40	-40	-260	-140	-40	-40	100
1895	-160	-20	120	80	-140	40	0	-220	-100	-20	-40	100
1896	-140	-20	100	80	-120	40	40	-180	-80	0	-20	100
1897	-120	-40	100	80	-120	40	40	-140	-60	0	0	100
1898	-100	-40	80	80	-100	20	40	-120	-40	0	-20	80
1899	-100	-40	80	80	-100	20	60	-100	-40	0	-20	80
1900	-100	-40	80	80	-100	20	60	-100	-40	0	-20	80
1901	-100	-40	80	80	-100	20	60	-100	-40	0	-20	80
1902	-100	-40	80	80	-100	20	60	-80	-40	0	-20	80
1903	-100	-40	80	60	-100	20	60	-60	-40	0	-20	80
1904	-100	-40	60	60	-80	20	60	-40	-40	0	-20	80
1905	-100	-40	60	60	-80	20	60	-40	-20	0	-20	80
1906	-100	-20	80	60	-80	20	80	-40	-20	20	-20	80
1907	-100	-20	80	60	-80	20	80	-40	-20	20	-20	80
1908	-100	-20	80	60	-80	20	80	-40	-20	20	-20	80
1909	-100	-20	80	60	-100	40	80	-40	-20	20	0	80
1910	-100	-40	80	60	-100	20	80	-40	-20	20	0	80
1911	-80	-40	60	60	-80	20	80	-20	-20	20	0	80
1912	-80	-20	60	60	-80	20	80	0	0	20	0	80
1913	-80	-20	60	60	-80	20	80	20	0	20	0	80
1914	-100	-40	60	60	-80	20	80	20	0	20	0	80
1915	-100	-40	60	60	-80	20	80	20	0	20	0	80
1916	-100	-20	60	60	-80	20	80	20	0	20	0	80
1917	-100	-20	60	60	-80	20	80	20	0	20	0	80
1918	-80	-20	60	60	-80	20	80	20	0	20	0	80
1919	-80	-20	60	60	-80	20	80	20	0	20	0	80
1920	-60	-20	60	40	-60	20	80	20	0	20	0	80
1921	-60	-20	60	40	-60	20	80	40	0	40	0	80
1922	-80	-20	60	40	-60	20	80	40	0	40	0	80
1923	-100	-20	60	40	-80	20	80	40	0	40	0	80
1924	-80	-20	60	40	-80	20	80	40	0	40	0	80
1925	-80	-20	60	40	-80	20	80	40	-20	40	0	80
1926	-80	-20	60	60	-80	20	80	40	-20	40	0	80
1927	-60	-20	60	40	-60	20	80	40	-20	40	0	80
1928	-60	-20	60	40	-60	20	80	60	-20	40	0	80
1929	-60	-20	60	40	-60	20	80	80	-20	40	0	80
1930	-60	-20	60	40	-60	20	80	80	-20	40	0	80
1931	-60	-20	60	40	-60	0	60	80	-20	40	0	80
1932	-80	-20	60	40	-60	20	60	80	-20	40	0	80
1933	-80	-20	60	40	-60	40	80	80	-20	40	20	80
1934	-80	-20	60	40	-60	20	80	80	-20	40	20	80
1935	-80	-20	60	40	-60	0	80	80	-20	40	20	80
1936	-60	-20	60	40	-60	20	80	100	-20	60	20	80
1937	-40	-20	40	20	-60	20	80	120	-20	60	20	80
1938	-40	-20	40	40	-60	20	80	120	-20	40	0	80
1939	-60	-20	60	40	-80	20	80	120	-20	60	20	80
1940	-40	0	40	20	-60	20	80	140	-20	60	20	80
1941	-60	0	60	40	-60	20	80	140	-20	60	20	80
1942	-40	0	40	20	-40	20	80	140	-20	60	20	80
1943	-20	0	40	0	-40	20	60	140	-20	60	20	80
1944	-40	0	40	20	-40	20	60	160	0	60	20	80
1945	-60	0	40	40	-40	20	60	160	0	60	20	80
1946	-40	0	40	20	-40	20	60	160	0	60	20	80
1947	-20	0	40	20	-40	20	60	160	0	60	20	80
1948	-20	0	40	20	-40	20	60	180	0	60	20	80
1949	-20	20	40	0	-20	20	60	200	0	60	20	80
1950	-20	20	40	0	-20	20	60	220	0	60	20	80
1951	-20	20	20	0	-20	20	60	220	0	60	20	80
1952	-20	20	20	0	-20	20	60	220	0	60	20	100
1953	0	20	20	-20	0	20	40	220	0	60	20	100
1954	0	20	20	-20	0	20	40	220	0	60	20	100
1955	0	20	0	-20	0	0	60	240	0	80	20	100
1956	0	20	0	-20	0	0	60	260	20	80	20	100
1957	20	20	0	-20	20	0	40	280	40	80	20	100
1958	20	20	0	-20	20	0	20	280	20	80	20	100
1959	20	20	0	-20	0	20	20	280	20	80	40	100
1960	20	20	0	-20	0	0	40	300	20	80	40	100
1961	40	20	-20	-20	20	-20	40	320	20	80	40	100
1962	40	20	-20	-20	20	0	40	340	40	80	40	100
1963	40	40	-20	-40	20	20	40	360	40	80	40	100
1964	60	40	-20	-60	40	0	40	360	40	80	40	100
1965	80	40	-40	-80	60	0	20	360	40	80	40	100
1966	80	40	-40	-80	60	0	20	380	60	80	40	100
1967	80	40	-40	-80	60	0	20	400	60	100	40	100
1968	80	40	-40	-80	60	0	20	400	60	120	60	120
1969	100	60	-40	-80	60	0	20	420	80	120	80	120
1970	100	40	-40	-60	60	0	20	420	80	120	60	100
1971	80	40	-40	-40	60	0	20	420	80	120	60	100
1972	80	60	-40	-60	60	0	40	440	80	120	80	120
1973	120	80	-40	-80	80	0	40	460	100	120	100	140
1974	140	80	-60	-100	100	0	40	460	100	120	100	140
1975	140	80	-60	-120	100	20	40	460	100	120	100	140
1976	120	80	-40	-100	80	40	40	460	100	120	100	140
1977	120	80	-20	-100	60	20	40	460	100	120	100	140
1978	160	100	-60	-120	100	0	40	460	120	140	100	140
1979	160	120	-40	-140	100	20	40	460	120	160	100	140
1980	160	100	-60	-120	100	20	40	480	120	140	100	140
1981	160	80	-80	-120	120	20	40	480	120	140	100	140
1982	160	100	-60	-120	120	20	40	480	120	140	100	140
1983	140	120	-40	-120	100	40	60	480	120	140	100	140
1984	120	80	-40	-100	80	20	60	480	120	140	100	140
1985	120	60	-60	-100	100	0	60	480	120	140	100	140
1986	160	100	-60	-140	120	20	60	480	120	140	120	140
1987	160	120	-40	-140	100	40	40	480	120	140	120	140
1988	160	120	-40	-140	80	40	40	480	120	140	120	140
1989	160	120	-40	-140	80	40	60	480	120	160	120	160
1990	160	120	-40	-140	80	40	60	480	120	160	120	160
1991	140	100	-40	-120	80	40	60	460	140	160	120	160
1992	120	100	-20	-100	80	40	60	440	140	160	120	160
1993	120	100	-20	-120	80	40	60	420	140	160	120	160
1994	140	100	-40	-140	80	40	60	400	140	160	120	160
1995	140	120	-40	-140	80	40	60	380	140	160	120	160
1996	120	100	-20	-120	60	40	60	360	140	140	120	160
1997	100	80	-20	-100	60	40	60	360	140	140	120	160
1998	100	60	-20	-80	60	20	60	340	140	140	120	160
1999	100	60	-20	-80	60	20	60	320	140	140	120	160
2000	100	80	-20	-80	60	40	80	300	120	140	120	160
2001	100	80	-20	-80	60	40	80	280	120	140	120	160
2002	80	80	0	-80	40	40	80	260	120	140	120	160
2003	60	60	0	-60	20	40	80	240	120	140	100	160
2004	80	60	-20	-60	40	20	80	220	100	120	100	160
2005	40	60	0	-60	20	20	100	200	80	100	100	160
2006	20	60	20	-40	0	20	100	180	80	100	100	160
2007	20	40	20	-20	-20	20	80	160	80	80	80	140
2008	0	20	20	0	-20	20	80	140	80	80	60	120
2009	-20	20	40	0	-20	40	80	120	80	80	80	140
2010	0	20	20	-20	-20	20	80	100	60	80	80	140
2011	20	20	20	-20	-20	20	80	100	60	80	80	140
2012	-20	20	40	-20	-40	40	80	100	60	60	80	120
2013	-40	20	60	0	-60	40	80	80	40	60	60	120
2014	-20	20	40	20	-40	20	80	40	20	60	40	120
2015	-20	20	40	0	-40	20	80	40	20	60	40	120
2016	-20	20	60	0	-40	40	80	40	20	60	40	120
2017	-40	0	60	20	-40	40	80	20	20	40	40	120
2018	-60	-20	60	40	-60	20	80	0	20	20	40	100
2019	-80	-20	60	40	-60	20	80	0	20	20	40	100
2020	-60	-20	40	20	-40	20	80	0	20	20	40	100
2021	-40	-20	40	20	-40	20	80	0	0	20	40	100
2022	-60	-20	40	40	-60	20	80	-20	0	20	40	100
2023	-80	-20	80	60	-80	20	80	-40	0	20	20	100
2024	-80	-20	80	40	-80	20	80	-40	0	20	20	100
2025	-80	-20	80	40	-80	20	80	-40	0	20	20	100
2026	-80	-20	80	60	-80	20	80	-40	-20	20	20	100
2027	-80	-40	60	60	-80	20	80	-40	-40	0	20	100
2028	-80	-40	40	60	-60	20	80	-40	-20	0	20	100
2029	-80	-20	40	60	-60	20	80	-40	0	0	20	100
2030	-100	-40	40	60	-60	20	80	-40	-20	0	20	100
2031	-100	-60	60	60	-80	20	80	-40	-20	0	20	80
2032	-100	-40	60	60	-80	20	80	-40	-20	0	20	80
2033	-80	-20	60	60	-80	20	80	-40	-20	0	20	80
2034	-60	-20	40	40	-60	20	80	-40	-20	0	20	100
2035	-80	-20	60	40	-80	20	80	-40	-20	0	20	100
2036	-100	-20	60	60	-80	20	80	-40	-20	0	20	100
2037	-80	-40	60	60	-80	20	80	-40	-20	0	20	100
2038	-80	-40	60	60	-80	20	80	-40	-20	0	20	100
2039	-80	-20	60	60	-80	20	80	-40	-20	0	20	100
2040	-80	-20	60	60	-80	20	80	-40	-20	0	20	100
2041	-80	-20	60	60	-80	20	80	-40	-20	0	20	100
2042	-100	-20	60	60	-80	20	80	-40	-20	0	20	100
2043	-100	-20	60	60	-80	20	80	-40	-20	0	20	100
2044	-80	-20	40	60	-60	20	80	-40	-20	0	20	100
2045	-80	-40	60	60	-80	20	80	-40	-20	0	20	100
2046	-80	-20	80	60	-80	20	80	-40	-20	0	20	100
2047	-80	-20	60	60	-80	20	80	-40	-20	0	20	100
2048	-80	-20	60	60	-80	20	80	-40	-20	0	20	100
2049	-80	-20	60	40	-80	20	80	-40	-20	0	20	100
2050	-80	-20	60	40	-80	20	80	-40	-20	0	20	100
2051	-80	-20	60	60	-80	20	80	-40	-20	0	20	100
2052	-80	-20	60	60	-80	20	80	-40	0	0	20	100
2053	-80	-20	60	60	-80	20	80	-40	0	0	20	100
2054	-80	-20	60	60	-80	20	60	-40	0	0	20	80
2055	-80	-20	60	60	-80	20	80	-40	0	0	20	80
2056	-80	-20	60	60	-80	20	80	-20	0	0	20	80
2057	-60	-20	60	60	-60	20	80	-20	0	0	20	80
2058	-60	-20	60	60	-60	20	80	-20	0	0	20	80
2059	-80	-20	60	60	-80	40	80	-20	0	20	20	80
2060	-80	-20	40	40	-60	20	80	-20	0	20	20	80
2061	-80	-20	60	40	-60	20	80	-20	0	20	20	80
2062	-100	-20	80	60	-80	20	80	-20	0	20	20	80
2063	-80	-20	60	60	-60	20	80	-20	0	20	20	80
2064	-60	-20	40	60	-60	20	80	-20	0	20	20	80
2065	-80	-20	60	60	-60	20	80	-20	20	20	20	80
2066	-80	-20	80	60	-80	20	80	-20	20	20	40	80
2067	-80	-20	60	60	-80	20	80	-20	20	20	40	100
2068	-80	-20	40	40	-60	20	80	-20	20	20	40	80
2069	-80	-20	40	40	-60	20	80	-20	20	20	40	80
2070	-60	-20	40	40	-60	20	80	-20	20	20	40	100
2071	-80	-20	40	40	-60	20	80	-20	20	20	40	100
2072	-100	-40	40	60	-60	20	80	-20	20	20	40	80
2073	-100	-40	40	80	-60	20	80	-20	20	20	40	80
2074	-80	-40	40	60	-60	0	80	-20	20	20	40	80
2075	-40	-20	40	40	-40	0	80	-20	20	20	40	80
2076	-60	-20	60	40	-60	20	80	-20	20	20	40	80
2077	-80	-40	40	40	-60	20	80	-20	20	20	40	80
2078	-80	-40	40	40	-60	20	80	-20	20	20	40	80
2079	-80	-40	40	60	-60	20	80	-20	20	20	40	80
2080	-80	-40	40	60	-60	20	80	-20	20	20	20	80
2081	-80	-40	40	60	-60	20	80	-40	20	20	20	80
2082	-80	-20	60	40	-60	20	80	-40	20	20	20	80
2083	-80	-20	60	40	-60	20	80	-40	20	40	20	80
2084	-100	-40	60	60	-80	20	80	-40	20	20	20	80
2085	-100	-40	60	60	-80	20	80	-40	20	20	20	80
2086	-100	-40	60	60	-80	20	80	-40	20	20	20	80
2087	-100	-40	60	60	-80	20	80	-40	20	20	20	80
2088	-100	-40	60	60	-80	20	80	-40	20	20	20	80
2089	-100	-40	60	60	-80	20	80	-40	20	20	20	80
2090	-100	-40	60	60	-80	20	80	-40	20	20	20	100
2091	-100	-40	60	60	-80	20	80	-40	20	20	20	100
2092	-100	-40	80	60	-100	20	80	-40	20	20	20	100
2093	-100	-40	80	60	-100	20	80	-40	20	20	20	100
2094	-100	-40	60	60	-80	20	80	-40	20	20	20	100
2095	-100	-40	60	60	-80	20	80	-60	20	20	20	100
2096	-120	-40	80	80	-100	40	80	-60	20	20	20	100
2097	-120	-40	80	80	-100	20	80	-60	20	20	20	80
2098	-100	-40	80	60	-80	20	80	-60	0	0	0	60
2099	-80	0	80	40	-80	40	80	-60	0	0	0	80
2100	-80	0	80	40	-80	40	80	-60	0	0	20	80
2101	-100	-20	80	60	-80	20	80	-60	0	0	20	80
2102	-100	-20	80	60	-80	20	80	-60	0	0	20	80
2103	-100	-20	80	60	-80	40	80	-60	0	0	20	80
2104	-100	-20	80	60	-80	40	80	-60	0	20	20	80
2105	-100	-20	80	60	-80	40	80	-60	20	20	20	80
2106	-80	0	80	40	-80	40	80	-40	40	20	20	80
2107	-80	20	80	40	-80	40	80	-40	40	20	20	80
2108	-60	40	80	20	-80	40	80	-40	40	20	20	100
2109	-60	40	100	20	-80	60	80	-40	40	20	20	100
2110	-60	40	100	20	-80	80	80	-40	40	40	40	100
2111	-60	40	100	20	-80	80	100	-20	40	40	40	100
2112	-60	40	100	20	-80	80	100	0	40	40	40	100
2113	-60	40	100	20	-80	80	100	-20	40	40	40	100
2114	-40	40	80	20	-60	60	100	-20	40	40	40	100
2115	-60	40	100	20	-80	80	100	0	60	40	40	100
2116	-60	40	100	20	-80	80	100	0	60	40	40	100
2117	-60	20	80	20	-60	40	100	0	60	40	40	100
2118	-60	20	80	20	-80	40	100	0	60	40	40	100
2119	-60	20	80	20	-80	40	100	0	60	40	40	100
2120	-60	20	80	20	-80	40	80	0	60	40	40	100
2121	-60	20	80	20	-80	40	80	0	60	40	40	100
2122	-60	20	80	20	-80	40	80	20	60	40	40	100
2123	-60	40	80	20	-80	60	80	20	60	60	40	100
2124	-20	60	80	-20	-60	60	80	20	60	60	40	100
2125	-40	60	80	-20	-60	60	80	20	60	60	40	100
2126	-40	60	100	-20	-60	80	80	20	80	60	60	120
2127	-40	40	100	0	-60	80	80	20	80	60	60	100
2128	-40	60	100	-20	-60	80	60	20	80	60	60	100
2129	-20	80	100	-40	-60	80	40	20	80	60	60	120
2130	-20	60	80	-20	-40	60	40	0	60	60	60	120
2131	-20	40	60	-20	-60	60	40	-20	60	60	40	120
2132	-40	40	80	-20	-80	60	40	-20	60	60	40	120
2133	-60	40	100	0	-80	60	40	-20	60	60	40	120
2134	-40	40	80	20	-80	60	40	-20	60	60	40	120
2135	-40	40	60	20	-60	60	40	-20	40	40	40	100
2136	-60	20	60	20	-60	40	20	-40	20	20	20	80
2137	-60	0	60	20	-60	40	20	-60	20	20	20	80
2138	-60	20	60	20	-60	40	20	-60	20	20	20	80
2139	-60	0	60	20	-60	40	20	-60	20	20	20	80
2140	-60	0	60	20	-60	40	20	-60	20	20	20	80
2141	-60	0	60	20	-60	40	20	-80	20	20	20	80
2142	-60	0	60	40	-60	40	20	-80	20	20	20	80
2143	-60	0	60	40	-60	40	40	-100	0	20	20	80
2144	-60	0	60	20	-60	40	40	-100	0	20	20	80
2145	-60	0	80	20	-80	40	20	-100	0	20	20	80
2146	-80	0	80	40	-80	40	0	-100	0	20	20	80
2147	-100	-20	80	60	-80	40	20	-100	0	20	20	80
2148	-100	-20	80	60	-80	40	40	-100	0	20	20	80
2149	-100	0	100	60	-100	60	40	-100	0	20	20	80
2150	-100	0	100	60	-120	40	40	-100	0	20	20	80
2151	-100	0	100	60	-100	40	40	-100	0	20	20	80
2152	-100	0	100	60	-120	60	40	-100	0	20	20	80
2153	-100	0	100	60	-120	60	40	-120	0	20	20	80
2154	-100	0	80	60	-100	40	40	-120	0	20	20	80
2155	-120	-20	100	60	-120	40	40	-120	0	20	20	80
2156	-140	-40	100	60	-120	40	40	-120	-20	0	0	60
2157	-120	-40	100	60	-120	40	40	-120	-20	-20	0	60
2158	-120	-40	100	60	-120	40	40	-120	-20	-20	0	60
2159	-140	-40	120	80	-140	40	40	-120	-20	-20	0	60
2160	-160	-40	120	100	-140	40	40	-140	-20	-20	0	60
2161	-160	-60	100	120	-140	20	40	-140	-20	-20	0	60
2162	-140	-40	100	80	-120	40	40	-140	-20	0	0	60
2163	-140	-20	100	80	-120	40	40	-140	-20	0	0	60
2164	-140	-40	100	80	-120	40	40	-140	-20	0	0	60
2165	-140	-40	100	80	-120	40	40	-140	-20	0	0	60
2166	-140	-20	120	80	-120	40	40	-140	-20	0	0	60
2167	-120	-20	100	80	-100	40	40	-140	-20	0	0	60
2168	-120	-20	100	80	-100	40	40	-140	-20	0	0	60
2169	-120	-20	100	80	-120	40	40	-140	-20	0	0	60
2170	-120	-20	100	80	-100	40	40	-140	-20	0	0	60
2171	-120	-20	100	80	-120	40	40	-140	-20	0	0	60
2172	-120	-20	100	80	-120	40	40	-140	-20	0	0	60
2173	-120	-20	100	80	-120	40	40	-140	0	0	0	60
2174	-120	-20	100	80	-120	40	40	-140	0	0	0	60
2175	-120	-20	100	80	-120	40	40	-140	0	0	0	60
2176	-120	-20	120	80	-120	40	40	-140	0	0	0	60
2177	-120	-40	100	80	-100	40	40	-140	-20	0	0	60
2178	-120	-40	100	80	-120	40	40	-140	-20	-20	0	60
2179	-160	-40	120	100	-140	40	60	-140	-20	-20	-20	60
2180	-180	-60	120	120	-160	20	80	-120	-20	-20	-40	60
2181	-200	-80	120	140	-160	0	100	-100	-20	-20	-40	40
2182	-200	-60	120	140	-160	40	120	-80	20	-20	-40	40
2183	-180	-60	120	120	-140	20	140	-80	20	-20	-40	40
2184	-160	-80	100	120	-140	0	160	-60	20	-20	-40	40
2185	-180	-100	80	140	-140	-20	180	-40	20	-20	-40	20
2186	-200	-120	80	160	-140	-20	180	-20	40	-20	-40	0
2187	-200	-120	80	160	-140	-20	180	40	80	0	-40	0
2188	-200	-80	100	140	-140	20	200	140	160	60	20	40
2189	-180	-40	120	100	-140	60	220	280	240	140	80	80
2190	-100	20	120	40	-120	80	240	460	340	220	140	120
2191	0	80	60	-40	-40	80	200	600	400	300	200	160
2192	120	140	0	-140	60	80	100	680	420	340	240	200
2193	280	180	-120	-240	200	40	0	760	400	340	260	220
2194	440	220	-240	-340	340	-20	-120	900	380	340	280	240
2195	580	260	-300	-420	440	-20	-240	1000	380	340	300	260
2196	720	340	-360	-520	540	-20	-360	1140	440	380	360	280
2197	860	420	-420	-640	640	-20	-440	1280	460	400	400	320
2198	960	440	-520	-700	740	-40	-500	1360	420	360	360	300
2199	980	440	-560	-700	760	-60	-500	1320	360	280	300	280
2200	980	400	-600	-700	780	-100	-500	1260	300	200	240	240
2201	980	360	-620	-680	800	-140	-480	1200	240	140	180	200
2202	940	340	-620	-660	780	-140	-520	960	140	60	120	160
2203	860	320	-540	-600	700	-120	-600	620	20	-20	80	160
2204	700	320	-380	-520	540	-20	-640	200	-100	-40	80	180
2205	540	320	-180	-420	360	80	-640	-180	-140	-60	80	200
2206	400	320	-60	-340	220	120	-640	-420	-180	-80	80	200
2207	280	320	60	-300	120	180	-700	-700	-260	-80	80	220
2208	180	300	120	-260	40	220	-720	-940	-320	-100	80	220
2209	80	280	180	-200	-40	240	-720	-1100	-360	-120	60	220
2210	0	260	240	-140	-120	260	-680	-1260	-400	-140	40	220
2211	-80	220	280	-80	-180	260	-620	-1300	-420	-140	20	220
2212	-140	200	320	-40	-240	260	-560	-1240	-420	-140	20	200
2213	-180	180	340	0	-260	260	-480	-1180	-420	-160	0	180
2214	-180	160	320	20	-260	240	-400	-1060	-420	-180	-20	160
2215	-200	120	320	40	-260	220	-320	-940	-380	-180	-20	140
2216	-220	80	300	60	-260	200	-260	-820	-340	-160	-20	120
2217	-200	60	260	80	-240	180	-220	-720	-320	-140	-20	100
2218	-200	40	240	80	-220	160	-180	-600	-280	-120	-20	100
2219	-200	20	220	80	-200	120	-140	-480	-240	-100	-20	100
2220	-200	0	200	80	-180	100	-100	-400	-200	-80	-20	100
2221	-200	0	180	80	-180	80	-60	-320	-140	-60	-20	80
2222	-200	0	160	80	-180	80	-20	-260	-100	-60	-20	80
2223	-180	-20	160	80	-180	80	20	-220	-80	-60	-20	80
2224	-160	-20	140	80	-160	60	20	-180	-60	-60	-20	80
2225	-140	-20	120	80	-140	60	20	-160	-60	-40	0	80
2226	-140	-20	140	80	-140	60	40	-140	-40	-20	0	80
2227	-140	-20	120	80	-140	40	60	-120	-40	-20	0	80
2228	-140	-20	120	80	-140	40	60	-100	-40	-20	0	80
2229	-140	-20	120	80	-140	60	60	-100	-40	-20	0	80
2230	-140	-20	120	80	-140	60	60	-100	-40	-20	0	80
2231	-140	-20	120	80	-120	40	60	-100	-20	-20	0	80
2232	-140	0	120	60	-120	60	60	-80	0	-20	0	80
2233	-120	20	120	60	-120	60	60	-60	0	-20	0	80
2234	-120	-20	120	60	-120	60	60	-80	0	-20	0	80
2235	-120	-20	120	80	-120	60	60	-60	0	-20	0	80
2236	-120	-20	120	80	-120	60	60	-40	0	0	0	80
2237	-120	-20	120	80	-120	40	60	-40	0	0	0	80
2238	-120	-20	120	80	-120	40	60	-40	0	0	20	80
2239	-140	-20	120	80	-140	40	80	-40	0	0	20	80
2240	-140	-20	120	80	-140	40	80	-40	0	0	20	80
2241	-120	-20	100	60	-120	40	60	-20	0	0	20	80
2242	-140	-20	120	80	-120	40	60	-20	0	0	20	80
2243	-120	0	120	60	-120	40	60	-20	0	0	20	80
2244	-100	0	100	40	-100	40	60	-20	0	0	20	80
2245	-80	0	100	40	-100	60	60	-20	20	20	20	80
2246	-100	0	120	40	-120	80	60	-20	20	20	20	80
2247	-120	-20	120	60	-120	60	60	-20	20	0	20	80
2248	-120	-20	120	60	-120	40	80	0	20	0	20	80
2249	-120	-20	120	60	-120	60	80	20	20	0	20	80
2250	-120	-20	100	60	-120	60	60	20	20	0	20	80
2251	-100	-20	80	60	-100	40	60	20	20	0	20	80
2252	-120	-20	100	60	-120	40	60	20	20	0	20	80
2253	-120	0	120	60	-120	60	60	20	20	0	20	80
2254	-100	0	100	60	-100	60	60	20	20	0	20	80
2255	-80	0	80	60	-80	60	60	20	20	0	20	80
2256	-80	0	100	60	-100	60	80	20	20	0	20	80
2257	-80	0	100	40	-100	60	60	40	20	20	20	80
2258	-80	0	100	40	-100	60	60	40	20	20	20	80
2259	-100	0	100	40	-100	60	60	40	40	20	20	80
2260	-100	20	100	40	-100	60	60	60	40	20	20	80
2261	-100	20	100	40	-100	60	60	80	40	20	20	80
2262	-100	20	100	40	-100	60	60	80	40	20	20	80
2263	-100	20	120	40	-100	60	60	80	40	20	20	80
2264	-100	0	100	40	-100	60	60	80	40	20	20	80
2265	-100	0	100	60	-100	60	60	80	40	20	20	80
2266	-100	0	100	60	-100	60	60	80	40	20	20	80
2267	-80	0	80	40	-80	40	60	80	40	20	20	80
2268	-60	20	80	20	-60	60	60	100	40	20	20	80
2269	-60	20	80	20	-80	60	60	120	40	20	20	80
2270	-60	20	80	20	-80	60	60	120	40	20	20	80
2271	-60	20	80	20	-80	60	60	120	40	20	20	80
2272	-60	20	80	20	-80	60	60	120	40	20	20	80
2273	-60	20	60	20	-60	40	60	120	40	20	20	80
2274	-60	20	80	20	-60	40	60	140	60	20	20	80
2275	-60	20	80	20	-60	40	60	160	60	20	20	80
2276	-60	20	80	20	-60	40	60	160	60	20	20	80
2277	-60	20	80	20	-60	40	60	160	60	20	20	80
2278	-40	20	60	20	-60	40	60	180	60	20	20	80
2279	-20	40	60	0	-40	40	60	200	60	40	40	80
2280	-20	40	60	0	-40	40	60	220	60	40	40	80
2281	-20	20	40	0	-40	40	60	220	60	40	40	80
2282	-20	20	40	0	-40	40	60	220	60	40	40	80
2283	-20	20	40	0	-40	40	40	220	60	40	40	80
2284	-20	20	40	0	-40	40	40	240	80	40	40	80
2285	-20	20	40	-20	-40	40	40	260	100	40	40	80
2286	-20	40	40	-20	-40	40	40	280	100	60	40	80
2287	0	40	40	-20	-20	40	40	280	100	60	60	80
2288	0	40	40	-20	0	40	40	300	100	60	60	80
2289	0	40	40	-20	-20	40	40	320	100	60	60	80
2290	20	40	20	-40	0	40	40	340	100	60	60	80
2291	40	60	0	-60	20	40	40	360	100	60	60	80
2292	60	80	20	-80	20	40	40	380	120	80	60	100
2293	80	100	20	-100	40	40	40	380	120	100	80	100
2294	100	100	0	-100	60	40	40	380	120	100	80	100
2295	100	100	0	-100	40	40	40	380	140	100	80	100
2296	80	100	0	-100	40	40	40	380	140	100	80	100
2297	100	100	-20	-100	60	40	40	420	140	100	80	100
2298	100	100	-20	-100	60	40	40	440	140	100	80	100
2299	100	100	0	-100	60	60	40	440	140	100	100	100
2300	100	80	0	-80	60	40	40	440	140	100	100	100
2301	80	80	0	-80	40	40	40	440	140	100	100	100
2302	100	100	0	-100	40	60	40	460	160	120	100	120
2303	120	100	0	-120	60	60	40	480	160	120	100	120
2304	120	100	0	-120	60	40	40	480	160	120	100	120
2305	120	100	0	-120	60	40	40	480	160	140	100	120
2306	120	140	0	-140	60	60	40	500	180	140	120	120
2307	160	160	-20	-160	100	80	40	520	200	140	140	140
2308	160	140	-20	-160	100	80	40	500	200	140	140	140
2309	160	140	-20	-140	80	80	40	500	200	140	140	140
2310	160	160	-20	-160	80	80	40	500	200	140	140	140
2311	160	160	-20	-160	80	80	40	500	200	140	140	140
2312	160	160	0	-160	80	80	40	500	200	140	140	140
2313	180	160	0	-180	80	80	40	500	200	140	140	140
2314	180	160	0	-160	80	80	40	500	200	140	140	140
2315	160	140	0	-140	80	80	40	500	200	140	140	140
2316	140	140	0	-140	60	80	40	480	200	140	140	140
2317	140	140	0	-140	60	80	40	480	200	140	140	140
2318	140	140	0	-140	60	80	40	480	200	140	140	140
2319	140	140	20	-140	60	80	40	460	200	140	140	140
2320	120	140	20	-140	60	80	40	440	180	140	140	140
2321	100	120	20	-120	60	80	40	420	180	140	120	140
2322	100	120	20	-120	40	80	40	400	180	140	120	140
2323	100	120	20	-120	40	80	40	380	180	140	120	140
2324	100	120	20	-120	40	80	40	360	180	140	120	140
2325	80	120	40	-100	20	80	40	340	180	140	120	140
2326	80	120	60	-100	0	80	60	320	160	140	120	140
2327	80	120	40	-100	20	80	60	320	140	120	120	120
2328	60	120	60	-80	-20	80	60	300	140	100	120	120
2329	40	120	80	-60	-40	80	60	280	140	100	100	120
2330	40	120	80	-80	-20	80	60	260	140	100	100	120
2331	60	120	60	-100	0	80	60	240	140	100	100	120
2332	40	120	80	-80	-20	100	80	220	140	100	100	120
2333	20	100	80	-60	-40	100	80	200	120	80	80	120
2334	0	80	80	-40	-40	80	60	160	100	60	80	120
2335	-20	80	80	-40	-40	80	60	140	100	60	80	120
2336	-20	80	80	-40	-40	80	60	120	100	60	80	120
2337	-20	80	80	-40	-40	80	60	120	80	60	60	100
2338	-20	60	80	-20	-60	80	60	100	60	40	60	80
2339	-40	60	80	0	-80	80	60	80	60	40	60	80
2340	-60	60	80	0	-80	80	60	60	60	20	60	80
2341	-60	40	80	0	-80	80	60	40	60	20	40	80
2342	-80	40	100	20	-100	80	60	20	60	20	40	80
2343	-60	40	100	20	-80	60	60	20	40	20	40	80
2344	-40	40	80	20	-60	40	60	0	40	20	40	80
2345	-60	40	100	20	-60	60	60	-20	40	0	20	80
2346	-60	40	100	20	-80	60	60	-20	40	0	20	80
2347	-60	40	100	20	-100	60	60	-20	40	0	20	80
2348	-60	20	80	20	-80	60	60	-40	20	0	20	60
2349	-80	20	100	40	-100	60	60	-40	0	0	20	60
2350	-100	0	100	60	-100	60	60	-40	20	-20	20	60
2351	-80	20	100	40	-100	60	60	-40	20	-20	20	60
2352	-80	20	120	20	-100	60	60	-40	20	-20	20	60
2353	-100	20	100	40	-100	60	60	-60	20	-20	0	60
2354	-100	0	80	60	-100	40	60	-80	0	-20	-20	40
2355	-100	0	100	60	-100	60	60	-80	0	-20	-20	40
2356	-100	0	100	60	-100	60	60	-60	0	-20	-20	40
2357	-100	0	100	60	-100	60	60	-60	0	-20	-20	40
2358	-100	0	100	60	-100	60	60	-60	0	-20	-20	40
2359	-100	0	100	60	-100	60	60	-60	0	-20	-20	40
2360	-100	0	100	60	-100	60	60	-60	0	-20	-20	40
2361	-100	0	100	60	-100	60	60	-60	0	-40	-20	40
2362	-100	20	100	60	-100	60	60	-60	0	-40	0	40
2363	-100	20	100	60	-100	60	60	-60	0	-40	0	40
2364	-100	0	100	60	-100	60	60	-60	0	-40	0	40
2365	-100	20	120	60	-100	60	60	-60	0	-20	0	40
2366	-100	20	120	40	-100	60	60	-60	0	-20	0	40
2367	-100	0	120	40	-100	60	60	-60	0	-20	0	40
2368	-100	0	120	40	-120	60	60	-60	0	-20	0	40
2369	-100	0	120	40	-120	60	60	-60	0	-20	0	40
2370	-100	0	100	40	-120	60	60	-60	0	-20	0	40
2371	-100	0	100	40	-120	60	60	-60	0	-20	0	40
2372	-100	20	120	40	-120	60	60	-60	0	-20	0	40
2373	-100	20	120	40	-120	60	60	-60	0	-20	0	40
2374	-100	20	100	40	-100	60	60	-60	0	-20	0	40
2375	-100	20	120	40	-100	60	60	-60	0	-20	0	40
2376	-100	20	120	40	-100	60	60	-60	0	-20	0	40
2377	-100	20	100	40	-100	60	60	-60	0	-20	0	40
2378	-100	20	100	40	-100	60	60	-60	0	-20	0	40
2379	-100	20	120	40	-100	60	60	-60	20	-20	0	40
2380	-100	20	100	40	-100	60	60	-60	20	-20	0	40
2381	-100	20	120	40	-100	60	60	-40	20	-20	0	40
2382	-100	20	120	40	-100	60	60	-40	20	-20	0	40
2383	-100	20	120	40	-100	60	60	-40	20	-20	0	40
2384	-100	20	120	40	-100	60	60	-40	20	-20	0	40
2385	-100	20	120	40	-120	60	60	-40	20	-20	0	40
2386	-100	20	120	40	-120	60	60	-40	20	-20	0	40
2387	-100	20	120	40	-120	60	60	-40	20	-20	0	40
2388	-100	20	120	40	-120	80	60	-40	20	-20	0	40
2389	-100	20	140	40	-120	80	60	-40	20	-20	0	40
2390	-100	20	120	40	-100	80	60	-40	20	-20	0	40
2391	-100	20	120	40	-100	80	60	-40	20	-20	0	40
2392	-100	40	120	40	-100	80	60	-40	20	-20	0	40
2393	-100	40	120	40	-100	80	60	-40	20	-20	0	40
2394	-100	20	120	40	-100	80	60	-40	20	-20	-20	40
2395	-100	20	120	40	-120	80	60	-40	20	-20	-20	40
2396	-100	40	120	40	-120	80	60	-40	20	-20	0	40
2397	-100	20	120	40	-120	60	60	-40	20	-20	0	40
2398	-100	20	120	40	-120	60	60	-40	20	-20	0	40
2399	-100	20	120	40	-120	60	60	-60	20	-20	0	40
2400	-100	20	120	40	-120	60	60	-60	20	-20	0	40
2401	-100	20	120	40	-120	60	60	-60	20	-20	0	40
2402	-100	20	120	40	-120	80	60	-60	20	-20	0	40
2403	-100	20	120	40	-120	80	60	-60	20	-20	0	40
2404	-100	20	120	40	-100	80	60	-60	20	-20	0	40
2405	-100	20	120	40	-100	80	60	-60	20	-20	0	40
2406	-100	20	120	40	-120	80	60	-60	20	-20	0	40
2407	-100	20	120	40	-120	80	80	-60	20	-20	0	40
2408	-100	20	120	40	-120	80	80	-60	20	-20	0	40
2409	-100	20	140	40	-120	80	80	-60	20	-20	0	40
2410	-100	20	140	40	-120	80	80	-60	20	-20	0	40
2411	-100	20	140	40	-120	80	80	-60	20	-20	0	40
2412	-100	20	120	40	-120	80	80	-60	20	-20	0	40
2413	-100	20	120	40	-120	80	80	-60	20	-20	0	40
2414	-100	20	120	40	-120	80	60	-60	20	-20	0	40
2415	-120	20	140	40	-120	80	60	-60	20	-20	0	40
2416	-100	20	140	40	-120	80	60	-60	20	-20	0	40
2417	-120	20	140	40	-120	80	60	-60	20	-20	0	40
2418	-120	20	140	40	-120	80	60	-60	20	-20	0	40
2419	-120	20	140	40	-120	80	60	-80	20	-20	0	40
2420	-100	20	140	40	-120	80	60	-80	20	-20	0	40
2421	-100	20	140	40	-120	80	60	-80	20	-20	0	40
2422	-100	20	140	40	-120	80	60	-80	20	-20	0	40
2423	-100	20	140	40	-120	80	60	-80	0	-20	0	40
2424	-100	20	120	40	-120	80	60	-80	0	-20	0	40
2425	-100	20	140	40	-120	80	60	-80	0	-20	0	40
2426	-120	20	160	40	-140	80	60	-80	0	-20	0	40
2427	-120	20	140	40	-120	80	60	-80	0	-20	0	40
2428	-120	20	140	40	-120	80	60	-80	0	-20	0	40
2429	-120	40	140	40	-120	80	60	-80	0	-20	0	40
2430	-120	40	140	40	-120	80	60	-80	0	-20	0	40
2431	-120	40	140	40	-120	80	60	-80	20	-20	0	40
2432	-120	40	140	40	-120	100	60	-80	20	-20	0	40
2433	-120	40	140	40	-140	100	60	-80	20	-20	0	40
2434	-120	40	140	40	-140	100	60	-80	20	-20	0	40
2435	-100	40	140	20	-120	100	60	-80	20	-20	0	40
2436	-100	60	140	20	-120	100	60	-80	40	0	20	60
2437	-100	60	140	20	-120	100	80	-60	40	0	20	60
2438	-100	60	160	20	-120	120	80	-40	40	0	20	60
2439	-100	80	180	20	-120	140	80	-40	40	0	20	60
2440	-80	80	140	0	-100	120	80	-40	40	0	20	60
2441	-60	80	140	0	-100	120	80	-40	40	0	20	60
2442	-80	80	160	0	-120	120	80	-40	40	0	20	60
2443	-80	80	160	0	-120	120	80	-40	40	0	20	60
2444	-80	80	160	0	-120	120	80	-40	40	0	20	60
2445	-80	80	160	0	-120	120	80	-40	60	0	20	60
2446	-80	80	160	0	-120	120	80	-20	60	0	20	60
2447	-80	60	140	0	-120	100	80	-20	60	0	20	60
2448	-80	60	140	0	-120	80	80	-20	60	20	20	60
2449	-80	60	140	0	-120	100	80	-20	60	20	20	60
2450	-80	60	140	0	-120	100	80	-20	60	20	20	60
2451	-80	60	140	0	-100	100	60	-20	60	20	40	60
2452	-60	80	140	-20	-80	100	60	-20	60	20	40	60
2453	-60	100	140	-20	-100	100	60	-20	60	20	40	60
2454	-60	100	140	-20	-100	120	60	-20	60	20	40	80
2455	-40	120	140	-40	-100	140	60	0	80	40	40	80
2456	-40	120	160	-40	-100	140	60	0	80	40	40	80
2457	-40	120	140	-40	-100	140	60	0	80	40	40	80
2458	-40	100	140	-40	-100	120	40	-20	80	40	40	80
2459	-40	80	140	-20	-100	100	20	-40	60	20	40	80
2460	-40	60	120	0	-100	80	20	-40	40	0	40	80
2461	-40	80	140	-20	-100	100	20	-40	40	20	40	80
2462	-40	100	140	-40	-100	120	20	-40	40	20	40	80
2463	-60	80	140	-20	-100	120	20	-40	40	0	20	60
2464	-60	60	120	0	-80	80	20	-60	20	-20	0	60
2465	-80	40	120	20	-100	80	20	-100	0	-20	0	60
2466	-60	60	120	20	-80	80	20	-120	0	-20	0	60
2467	-60	40	100	20	-80	60	20	-120	0	-20	0	60
2468	-60	20	80	20	-80	40	0	-120	0	-20	0	60
2469	-60	40	100	20	-80	60	0	-120	0	-20	0	60
2470	-60	40	100	20	-80	60	0	-120	-20	-20	0	40
2471	-60	40	100	20	-80	60	0	-120	-20	-40	0	40
2472	-80	40	120	20	-100	60	0	-120	-20	-40	-20	40
2473	-80	40	120	20	-100	60	0	-120	-20	-40	-20	40
2474	-80	40	120	20	-100	60	0	-140	-40	-40	-20	40
2475	-100	40	120	20	-100	80	0	-140	-40	-40	-20	40
2476	-100	40	120	20	-100	80	0	-140	-20	-40	-20	40
2477	-100	40	120	20	-100	80	0	-140	-20	-40	-20	40
2478	-100	40	140	20	-120	80	0	-140	-20	-40	-20	40
2479	-100	40	160	20	-140	100	20	-140	-20	-40	-20	40
2480	-100	40	140	20	-120	100	20	-140	-20	-40	-20	40
2481	-100	20	140	40	-120	80	20	-140	-20	-40	-20	40
2482	-120	20	140	60	-120	80	20	-140	-20	-40	-20	40
2483	-120	20	140	60	-140	80	20	-140	-20	-40	-20	40
2484	-120	20	140	60	-140	80	20	-140	-40	-40	-20	40
2485	-120	20	140	60	-140	80	20	-140	-40	-40	-20	20
2486	-120	20	140	60	-140	80	20	-160	-40	-40	-20	20
2487	-140	0	140	60	-140	60	20	-180	-40	-40	-20	20
2488	-140	0	140	60	-140	60	20	-180	-40	-40	-40	20
2489	-140	0	140	80	-140	60	20	-180	-40	-40	-40	20
2490	-120	0	140	60	-140	60	20	-180	-40	-60	-40	20
2491	-120	0	140	60	-140	60	20	-180	-40	-60	-40	20
2492	-140	0	140	60	-140	60	20	-180	-40	-60	-40	20
2493	-140	0	140	60	-140	80	0	-180	-40	-60	-40	20
2494	-140	0	140	60	-140	80	20	-180	-40	-60	-40	20
2495	-140	0	140	60	-140	80	20	-180	-40	-60	-40	20
2496	-140	0	140	60	-140	80	20	-180	-40	-40	-40	20
2497	-140	0	140	60	-140	80	20	-180	-40	-40	-40	20
2498	-140	0	140	60	-140	80	20	-180	-40	-40	-40	20
2499	-140	0	140	60	-140	80	20	-180	-40	-40	-40	20
2500	-140	20	140	60	-140	80	20	-180	-40	-40	-40	20
2501	-120	20	140	60	-140	80	20	-180	-40	-40	-40	20
2502	-120	20	140	60	-140	80	20	-180	-40	-40	-40	20
2503	-120	20	140	60	-140	80	20	-180	-40	-40	-40	40
2504	-120	20	140	60	-140	80	20	-180	-40	-40	-40	40
2505	-120	20	140	60	-140	80	20	-180	-40	-40	-40	40
2506	-120	20	140	60	-140	80	20	-180	-40	-40	-40	40
2507	-140	20	140	60	-140	80	20	-180	-40	-40	-40	20
2508	-140	20	140	60	-140	80	40	-180	-40	-40	-40	20
2509	-160	0	140	80	-160	80	60	-160	-40	-60	-40	20
2510	-180	-20	140	100	-180	60	80	-160	-40	-60	-40	20
2511	-200	-40	140	120	-180	60	100	-140	-20	-60	-60	20
2512	-200	-60	160	120	-180	60	120	-120	-20	-60	-80	-20
2513	-200	-80	160	120	-180	60	140	-100	-20	-60	-80	-40
2514	-200	-100	120	140	-160	20	140	-80	-20	-60	-80	-40
2515	-200	-80	140	140	-160	40	140	-40	20	-60	-80	-40
2516	-200	-60	160	120	-180	60	160	60	120	20	-40	-20
2517	-160	0	160	80	-160	80	180	200	220	100	20	20
2518	-120	60	160	40	-140	100	200	360	320	180	80	60
2519	-20	120	120	-40	-80	120	160	520	380	260	140	100
2520	120	180	60	-140	20	120	80	600	400	280	200	140
2521	240	200	-20	-200	120	80	-20	640	360	280	220	160
2522	380	240	-120	-300	240	60	-120	720	340	280	260	180
2523	540	300	-220	-420	380	40	-240	860	340	300	300	220
2524	680	380	-300	-540	500	40	-380	1000	380	340	340	260
2525	820	460	-380	-640	600	40	-460	1120	400	340	360	280
2526	920	480	-440	-700	680	20	-520	1180	380	320	320	260
2527	980	460	-520	-720	760	-40	-520	1160	320	240	260	220
2528	980	440	-560	-700	760	-80	-500	1080	260	160	200	180
2529	980	420	-580	-680	760	-100	-460	1000	200	100	140	140
2530	960	380	-600	-660	760	-120	-520	820	80	20	60	100
2531	860	340	-520	-600	700	-100	-580	480	-60	-60	20	80
2532	720	340	-400	-540	560	-40	-600	180	-140	-100	20	100
2533	540	340	-200	-440	380	60	-620	-240	-200	-100	20	120
2534	380	320	-60	-340	220	140	-660	-580	-280	-140	0	140
2535	240	300	80	-280	80	200	-700	-880	-360	-160	-20	160
2536	140	280	160	-220	0	220	-740	-1100	-400	-180	-40	140
2537	60	260	200	-160	-80	240	-720	-1240	-420	-200	-40	140
2538	-20	260	260	-120	-140	260	-700	-1360	-460	-200	-40	140
2539	-100	240	320	-80	-200	260	-640	-1420	-500	-200	-40	140
2540	-160	200	340	-20	-260	260	-580	-1380	-480	-200	-40	140
2541	-200	180	360	20	-280	260	-500	-1280	-480	-200	-60	120
2542	-220	160	380	40	-300	260	-400	-1160	-460	-200	-60	100
2543	-220	140	360	40	-300	260	-340	-1040	-440	-200	-60	100
2544	-200	120	320	40	-260	220	-280	-920	-400	-200	-60	80
2545	-200	100	300	60	-240	200	-220	-800	-360	-180	-80	60
2546	-200	80	280	60	-220	180	-180	-660	-300	-160	-80	40
